3596
4000,36533379555
650,420452594757
1
2
2
0,00393054723143662
0,0101339378205521
0,0037835005380677
0,00924728568348111
0,0111452538408799
0,0109814040118144
0,00424431615272321
0,00615686862313766
0,00614171359202563
0,00575255026431812
0,0126763205335005
0,0124795553144243
0,00878527361088089
0,0218358046848495
0,0109369399390467
0,00823199382678648
0,00784975605031295
0,00915914830655423
0,0105098726919869
0,0102252433525563
0,00071834720141821
0,00348655223419264
0,00650132096344132
0,0167665669472995
0,0126063387153601
0,00778033143245724
0,0148294987049435
0,00838332479336938
0,00898121067005938
0,0139690876633649
0,00658261757255494
0,0134683891942346
0,00901430796079928
0,00673027512474942
0,00372968237585707
0,00927614141346672
0,0144875905213523
0,0225132031135517
0,00692321223538763
0,00933831179256229
0,00367980887784278
0,0122812502926036
0,0126734578722841
0,0115223253804993
0,00301725780395294
0,000237798235704109
0,00332680999278394
0,0067809681154542
0,00327197163162604
0,00796141340437321
0,0124135002906057
0,0167714578669905
0,00507683245355739
0,00382123473476135
0,0107201091644251
0,0112834514944381
0,0117951628847569
0,0124810547172364
0,00579169287661048
0,0167041003401097
0,0172626081198626
0,00693476294078403
0,00925631789661118
0,00797262048030195
0,00482408094966154
0,00597330461670519
0,00951080590247014
0,0136459183159145
0,00625931068244213
0,0046222770227446
0,00147012313183961
0,0104625083355779
0,00133755840387862
0,00515040820162307
0,0117665251845081
0,00831891536399981
0,00302625413919208
0,0111858602635108
0,00549058957428949
0,0059319660321207
0,00733412867598392
0,00764604704640405
0,0077751380966614
0,00792096449446515
0,0102983380010444
0,00960132395258602
0,00120115402788463
0,015026783634253
0,00241007483578595
0,00583519051500967
-1,83791733180115E-05
0,00876021823751113
0,0136008280248019
0,0120734141100541
0,00201815368112272
0,00572632763070042
0,0156788009621706
0,0128955764152861
0,000879203890767767
0,0154737142131798
-0,00081478245618359
0,0024101312302231
-0,00960956173855747
-0,000134060288969326
0,0116758550654125
0,000916279412875667
0,010454778759651
0,00155752614932005
0,00969541073787136
0,00847323679224139
0,00136535873625947
0,0066687934250174
0,00523895608195707
0,00404168304336762
0,014649287125809
0,0103914368238963
-0,00459584579183928
0,0123766437886216
0,00372924389973084
-0,000482122672306455
0,0007461453061114
0,0203944635655951
-0,00594898019378777
0,00863021768187939
0,0131873949048808
0,00283663914285469
0,0090982338126222
0,0122062652769174
0,00695096547060893
0,0114599042906121
0,00146834179683404
0,00428789357202965
-0,0039447927605766
0,00308887835892939
0,00605975112267633
0,00389300121609274
0,00274066751886221
0,00475269703393862
-0,00961553760941183
-0,00266256602991041
-0,004711464641455
0,00840665071910523
0,0135761321132772
0,0108828441596013
0,0062645193741644
-0,000414770268374701
-0,00109381880393483
0,0111745867016314
0,00367963053554004
0,00680098793182802
0,00662114525292146
0,0131044051529546
0,0107471590887002
0,00239101737880328
0,0117380758864229
0,0285327113869865
-0,00853684810395957
0,00708868711857849
-0,0113277908460815
0,00430189431923698
0,00840451675931288
0,00215005652750232
0,00185307461312411
0,00630879112267346
0,00491209666601639
0,00463910540894454
0,00941100508050021
0,000310488480797968
-0,00392706189150033
-0,00637833037437775
-0,00391441447930655
0,00229433114760919
0,010015082408854
0,0102716095264706
-0,00551010820458069
0,00874651216383989
0,00625466922912131
0,00423315576340913
0,000516873477007741
0,00305537302911927
-0,00155774290971043
0,000669797690599349
0,00692050018295512
0,0132556671683822
0,0105554526854238
0,0155851633914762
-3,331935109178E-06
0,00462613055676296
0,00349962235965992
0,00295971898485375
0,00648240384029113
0,00895470895873271
0,0031600038603478
0,00275686808526853
0,00562141856575108
0,0113835945347658
0,00116256999561977
-0,00887901210856609
0,00633191247817655
0,00435685071441111
0,00928749819391893
0,00631885389879353
0,00693159096703174
0,00727490330452492
0,00136272153847166
0,0169500478502859
-0,00172378164321661
-0,0130418547686086
0,0025712229080876
0,010472274164564
0,00812299247476258
0,00354682622727077
0,00517369099541121
-0,00952216532450805
0,00473137124176215
0,000827913420881037
0,00453442141121273
0,00902086147447199
0,00262703574985251
0,00532464140551698
0,00568096687769267
0,00466124042282945
0,00298701932870449
0,00751423478339438
0,00186691169280683
0,011806720776598
0,00616192737610655
0,00237437856126856
0,012342328542038
0,0176715710008336
0,00455507027609144
0,00567318259027034
0,00578311059065064
0,00224908192473274
0,00864526090164357
0,0127287955299966
-0,00346577801024814
0,00495228628114219
0,00746232437756399
0,0138603603462728
0,0116971996258462
0,00617541732344293
0,00482973672881661
0,00821099135980091
0,00288909300044518
0,00799741847796117
0,00507512492662465
-0,000824065482049521
0,00162706240090553
0,00307864217787709
0,0140201738498352
-0,00286401302791239
0,00460884391141474
0,00248779749081087
0,00717511236989018
0,00510972313780542
0,0121719662984161
-0,00441454877027458
0,00327225886412729
0,00676343396842318
0,0179060892772211
0,00711630037787233
0,0025191856549453
0,0111691335500432
0,0182380492687332
0,00293366574572032
0,00401843532591346
0,0166555960428883
-0,0176088634216479
-0,00883083141743742
-6,71240263024446E-05
0,00532631245867597
0,0216955508324357
-0,0168189109595926
-0,010070526029525
0,00976781725906859
0,000951227724231204
0,00198712994054636
0,00596121966955214
0,0131317384575991
0,0124299529530892
0,00141113054688744
0,00121668319599056
0,0148886530011101
0,00774650040826495
0,00368312732415836
0,0146772581755268
-0,00354865895036811
0,000483996680809198
0,00564644879906189
0,00481144477197281
0,00612270134329858
0,00871516473360098
0,0079074179337575
0,00740722305627834
0,00252866834464384
0,00781882354478933
0,00367488441696237
0,00628964527820923
0,00981726107738308
0,00919387081598631
0,0104529121081848
0,013474476443649
0,0081326688340876
0,00338126430345144
0,0159927835840978
0,00700614703953112
0,01091666191422
0,00733012846461416
0,00394211885353267
0,0132673561269126
0,0118983479884866
0,000400165581631405
0,0106289028489435
0,0124129924112753
0,0114161358765772
0,00938457563677883
0,0143750998041406
0,0163461705962477
0,0114896522744643
0,00218308934822409
0,0078974903654381
0,00905900039881552
0,0215018658069422
0,0100339130018402
0,0108757696779839
0,0131143660946208
0,0102189430131295
0,00966137502211703
0,0126389745014192
0,0156543805971711
0,00453623997984668
0,0116728795278839
0,0297230163934047
-0,00559386518246622
0,0112688322313905
0,0172390375980279
0,013357502613925
0,00939622370917434
0,0113059711183867
0,0157883546261528
0,0176643902507726
0,0181252278109195
0,0158438765904058
0,0128511148202604
0,0247979302879617
0,0227309371938291
0,0140769475377328
-2,8462427292032E-05
0,00988905081014995
0,0177273634763144
0,0281662782239668
0,0207412226828354
0,0215782867705852
0,0168346278052939
0,0215792923792776
0,0231997493678133
0,0158563735773929
0,0216338324417316
0,0249662041284019
0,022992350707758
0,0324792875039829
0,0222572987034779
0,0224812144156781
0,0269264605816875
0,027744019044149
0,0277726528146042
0,0298754241768052
0,0282603506997749
0,0294259936082335
0,0340944636990856
0,040126873194394
0,0388440881424381
0,0373931482795205
0,0318462454288867
0,041131856946619
0,0365954449637272
0,0377140322432639
0,0398809102784802
0,0411226455949068
0,0418654432815784
0,0424211801687501
0,0490880816704098
0,0504303946459675
0,0552681726452817
0,0483021769157332
0,0571350954482614
0,0606089817625012
0,0589810694783842
0,0575739430761716
0,0535233828751682
0,0656004146583852
0,0509864136862091
0,0587037014854366
0,0673934132886116
0,0648849457914769
0,0770719088076642
0,0660617314587989
0,0620002206567565
0,0702012509526293
0,0666873796758866
0,0713008277411846
0,0745008064360067
0,0744911949352768
0,0797016402922386
0,087792006046507
0,0890468087016264
0,095431667792695
0,0802652240959032
0,0892901077701879
0,0828569064077547
0,0973453179172271
0,0945636597223247
0,0991309177477656
0,101985762412966
0,104451904329556
0,0954241383826236
0,120375227767765
0,114344659222236
0,108070365626661
0,11344595580289
0,11991337186421
0,109208589734163
0,113330858913444
0,124268511948811
0,12607148682172
0,124255012476172
0,137745181490403
0,128534684952176
0,12740814017301
0,145047496487627
0,144973727738833
0,148168020184662
0,148395096301246
0,141066675776528
0,146511704791691
0,15081418483905
0,162226312780395
0,142628393913785
0,161424489394524
0,175147408664879
0,171104778335017
0,165424093522816
0,18529198564894
0,159732404814253
0,185616023247532
0,179535408768453
0,189666836130017
0,182541613732561
0,20133037389334
0,195638470109133
0,197520358975027
0,18987789542776
0,208898423553987
0,198891256527996
0,214139121748104
0,207735631293338
0,220400754712993
0,2183915116678
0,234546964168878
0,224932617403735
0,239796518389621
0,24181312523324
0,242811114874602
0,248238738792752
0,238985352781057
0,231681948855479
0,254378025176869
0,259106345118088
0,260951955801203
0,249056564687816
0,278320078814738
0,25931504926438
0,275571765750783
0,279919186177416
0,268274740844387
0,29838734936659
0,299672206815329
0,289347748195106
0,304193031025512
0,305783981367364
0,299902988861974
0,29885600596012
0,333416844095533
0,30782785734629
0,306144910573583
0,321190260018916
0,34595331594307
0,299051963885521
0,324122549931146
0,341701651047869
0,354480321321094
0,333986348881209
0,359599828884286
0,363184306250165
0,34916305061781
0,359659549342289
0,379443608747086
0,378167589711265
0,404988373130214
0,407599713542238
0,387087609316619
0,392520808095424
0,420568830309586
0,380296649588963
0,43170523913858
0,414043484701026
0,404192105589821
0,430070904409544
0,437978035027842
0,417461923377609
0,436931202411494
0,434127691841306
0,440560018483624
0,431574341562166
0,473094029158988
0,454226683662879
0,467956547997753
0,462169205164661
0,493057325544333
0,480427650198171
0,488372000338078
0,494230478328837
0,501919252523779
0,486393718695647
0,53695817001138
0,479093706381557
0,526860264926783
0,501575818837634
0,531391890266276
0,513656120100668
0,565919653321544
0,50773162327733
0,547668183872718
0,558046299846579
0,589159173163898
0,545524226324783
0,567077976004265
0,542629886368511
0,590011625516835
0,574100694140515
0,57918519498608
0,553360826739375
0,610990615894881
0,593065239929796
0,626402209978331
0,592417432598766
0,629283365079278
0,595793610369487
0,632065502238262
0,628235916607644
0,630996906446571
0,598006097366012
0,675678277371335
0,637466371469772
0,681678890621952
0,619504425975455
0,676593180815295
0,651494461195766
0,712600400680444
0,677804057542508
0,68230785101124
0,652486188373903
0,724441538921856
0,667628542707628
0,679199561543932
0,683143055991318
0,677781203762427
0,674114358519693
0,739421443024549
0,702342085861626
0,79117350650728
0,735153938327736
0,708935369927207
0,7173033400496
0,767715846605844
0,72495936129655
0,761809413656284
0,743584555182808
0,775563319597419
0,725227951794035
0,84875438805006
0,744455911774934
0,778510007468345
0,835154027817796
0,797275718407141
0,730679558450654
0,825418429875511
0,764628929640268
0,826082942552261
0,769197440469186
0,88694102447543
0,785388813228744
0,831296288001816
0,835417067147821
0,838822781335608
0,774497422469393
0,942983993764516
0,784587989412727
0,828095853085425
0,900693216287905
0,927480748408173
0,815958800250275
0,880299442216218
0,85760708558673
0,827524973599616
0,904728445802664
0,979182658461374
0,794738245317795
0,892140626282489
0,954905359676742
0,909808051182973
0,86436998649671
1,02275241168487
0,853196378596934
0,908842487669231
1,0276269519498
0,939123082611618
0,883057888397342
1,05805649590142
0,889700126897083
0,905669551978372
0,996691683304445
1,00769895488532
0,862444303348144
1,00519561018361
0,965859603546587
0,92778905212314
0,983128951748702
1,02298250143468
0,924570164672896
0,958590067929999
0,953681968165715
0,956835534803329
0,961564972087345
1,05328404317243
0,929770551992888
1,05746184432737
1,01529109884369
0,994786450102823
0,920140113425491
1,02668295782399
0,973962013299695
0,973991197915232
1,05426019960999
1,24373208386483
1,01905723830124
1,01553221196495
0,998078624241705
1,01688234080459
1,00641558743829
1,11405951242639
0,992971427039467
1,1238037976725
1,09885533674981
1,09493470720604
1,0204258060797
1,13044599413534
1,01543396345871
1,0971629460877
1,08275620241087
1,11194433525507
1,01656295885019
1,16277603018812
1,02407347510603
1,13068752222715
1,08121219863772
1,20319983547083
0,95596579322508
1,14874088304516
1,05706529101373
1,03510106063566
1,0543492950908
1,07884643481014
1,01582311043787
1,12784094677245
1,065829279563
1,09412854684412
1,1037766023074
1,17657546125907
1,07412231962809
1,16288174066493
1,15628018410402
1,16982026323322
1,04626893612509
1,2273892141404
1,09899391164354
1,10661414389078
1,06198757697102
1,15518086546213
1,04556694686497
1,14172786683207
1,09461798249124
1,09000486241525
1,0852002862232
1,18297222351287
1,05986065318257
1,23740258665857
1,12121597179004
1,11828471271284
1,07013719880916
1,29289509917285
1,08411467254367
1,06502238381306
1,07252531894384
1,1780425692806
1,11426959941907
1,13876104550046
1,09797997686864
1,13885754286427
1,09313977947149
1,25517862040798
1,12215557914044
1,18911378130829
1,08227779522326
1,11277183148993
1,10614162892726
1,17886713808448
1,08622553418177
1,25466712909417
1,09197121149073
1,12843955701263
1,08271951334693
1,18555624196077
1,13082903350626
1,16168209022492
1,12956097318
1,19575631587939
1,10107059164649
1,18290440369201
1,11050426196125
1,07291946739018
1,15027302465841
1,1468519146554
1,07438690067998
1,15327401240946
1,09921274513031
1,17015468701275
1,1241388352436
1,11126601192225
1,03612015603985
1,11372651551624
1,11839288604768
1,09479228452379
1,0891522803212
1,16656139176664
1,12004878182884
1,11027303785364
1,1094626014953
1,15502790972813
1,06675615183482
1,17155781073345
1,13195307976613
1,19843845766849
1,04439132113615
1,1075243532754
1,07915134068339
1,17029252222337
1,09888206614459
1,13851684357834
1,08856231448542
1,19951990859851
1,06940425067277
1,07100963214224
1,10867559977882
1,15501374111788
1,05102846625326
1,12434636006945
1,0684528582922
1,12716178969052
1,06655555987228
1,09461908877637
1,04735309458624
1,09766362661579
1,04507084937625
1,09841918994466
1,10572714970786
1,11379807025965
1,05209912266672
1,03628162600871
1,09587969360123
1,06764690351909
1,05769056574653
1,03286776691663
1,07649581902206
1,08466045837867
1,04554445930338
1,11225797030585
1,01918929738857
1,06259404681334
1,01965036318933
1,02340411781497
0,991767738644126
1,0099150645284
1,02457803464297
1,05627544810831
1,01793198218046
1,0376252572492
0,99425498274496
1,02076879811023
1,03105377712102
1,01013861939533
0,968748190964851
1,05237032617389
0,987949974493789
0,996255707841134
1,01062614108127
1,03247216054939
0,992353521446448
1,01987759467198
0,997132637589741
0,964658139393568
0,989165520365649
0,969764714326129
0,940540675453916
0,975208112535588
0,948623569393642
0,966239149426369
0,952065651979626
0,977040193605944
0,964352547988138
1,0059780334855
0,943458196113916
0,975618636534111
0,914367728389471
0,959567730792867
0,917819860392131
0,916276806134651
0,92827166632579
0,946481105592101
0,915087405599438
0,920758347026189
0,907018612153131
0,972372132924291
0,887034608707103
0,918693641056562
0,918987549834041
0,925092907012178
0,876047500070344
0,902800061449644
0,881079025909851
0,89736664846071
0,866145097148614
0,890245459013099
0,866895021024885
0,885975075818527
0,852649687457014
0,87614087896359
0,847804771480651
0,865540415815576
0,832830739556804
0,859861056165489
0,827283145915615
0,841170602824552
0,833630878851428
0,826528921602003
0,817237294836103
0,831189202053326
0,791161046311174
0,829942888442896
0,807171788018161
0,828048203477664
0,805182183491226
0,813632430609808
0,80606128139721
0,812725284733405
0,786591583649705
0,798442237769935
0,767636655519031
0,786611230180284
0,757039641351223
0,753106733549794
0,780843196059963
0,784998134487947
0,738840431841422
0,758462975714633
0,770580106847136
0,751078496084488
0,743577953984079
0,737540603989595
0,716246950236491
0,754001927197781
0,726465004501508
0,72326867267591
0,713320935507576
0,727447566992653
0,709403569967387
0,712811198542857
0,690539494168856
0,698796707646161
0,686655236613502
0,669696818088359
0,68448786279463
0,693602049460733
0,675090976510403
0,675489995950079
0,676448321248479
0,67348381956285
0,676181719081907
0,660687081156608
0,655278958607423
0,649414860456475
0,649033075160958
0,646455795814517
0,635205131285172
0,635647389231861
0,621048672200285
0,634053174451255
0,628897804760684
0,632582100906614
0,623305959655011
0,633493750340707
0,609737650493584
0,592998682506318
0,59161439692244
0,606321798332102
0,596243603381637
0,615129328934951
0,603915935997723
0,599153149687377
0,590502674076731
0,586651341880079
0,56771499176462
0,573278349112196
0,571429577174593
0,57049348314305
0,559092267835092
0,56405276619613
0,5539110077583
0,567051857643583
0,53698286120431
0,543976103911661
0,554376821064349
0,534722447012728
0,543166149636565
0,545611192873734
0,523804206618693
0,535305926769559
0,524455286079404
0,516282328751831
0,510784951107097
0,521780526027121
0,506342171329288
0,506764982095896
0,50497839227065
0,500095391508115
0,492248237505486
0,504103232079802
0,482439656340772
0,477804037994475
0,489541570051728
0,49096591344397
0,483367401248037
0,48710139117893
0,475943719204434
0,476759647708311
0,470851128745708
0,475412453420221
0,461765738309115
0,456948613360259
0,455079140742295
0,457508787838966
0,454864544381737
0,453216640658009
0,447342454838749
0,45081414216555
0,442220110049013
0,447679602133024
0,446565004953287
0,443262646261074
0,427000165807349
0,435008831749282
0,43270005689493
0,430595943700406
0,428815845083223
0,421586897906144
0,41910520574361
0,415967370926255
0,412445409863739
0,413814627067594
0,414420171462116
0,407850438103758
0,403986730440357
0,397785228615066
0,391645647380038
0,39789088498015
0,402691902111465
0,394742409410449
0,391883940168265
0,396361739771219
0,387033835924364
0,384123426766452
0,371824662443542
0,381072686746155
0,381117616684462
0,374994436890055
0,363911429868776
0,361370686625291
0,36501511123649
0,367345761677083
0,36328705971088
0,360997889070072
0,359356920940644
0,361018006726262
0,360322463122643
0,352404524308229
0,349633584049735
0,343351478874825
0,348461099959604
0,345712184460941
0,33479222435449
0,344203070788673
0,341339521989277
0,336921844617118
0,333565667403635
0,330181576144049
0,323391811060688
0,329928650212279
0,326805228322673
0,314247824630037
0,315676586097391
0,315587544965358
0,317758937165292
0,314617766741424
0,308110622424674
0,312393973043375
0,31083992901532
0,305780964065147
0,309080591303253
0,303182462420143
0,303893635251518
0,302472112524637
0,293967594684884
0,291090224071993
0,291163328734288
0,291812951538126
0,288689632543742
0,290016189075524
0,289545495672762
0,285576142679092
0,281596289304777
0,281019528493796
0,281582543770004
0,278175864184784
0,274558867211085
0,274926776994231
0,277410382378815
0,277854474010938
0,270817889814772
0,266072224340476
0,265714482765944
0,264699220580624
0,262925357043425
0,261697978869814
0,25517012625614
0,258872541556482
0,257002234487642
0,256576662713294
0,261970204854283
0,258698605609936
0,249484536637694
0,256554549395192
0,260215671639473
0,252125580909833
0,249446953311494
0,253610565849815
0,248222691727604
0,243699138925406
0,246621341370071
0,241249048301323
0,249341040137348
0,248500971402921
0,246139804447575
0,242860355715741
0,24065906596998
0,243199502494433
0,239829126487656
0,237632744935041
0,240218885932591
0,23852634886055
0,238525965312579
0,245882642751489
0,244360490992334
0,246127185166153
0,249264468150907
0,245077715632134
0,245030798798813
0,246529773904851
0,250802675191007
0,251486685951297
0,246455176656674
0,253256858240994
0,253920705896636
0,251089240783587
0,255368847813934
0,254913196529366
0,262142253557757
0,260073014592082
0,25639912234912
0,262559241375501
0,264134424114144
0,267386351920678
0,270205661227991
0,266284235986303
0,273637126252681
0,280756841097151
0,277241365501558
0,276193500999637
0,28157132356662
0,283636430419509
0,284097769822783
0,285324901269729
0,282104890513546
0,291518983883068
0,297536645337794
0,288219255806688
0,289206615288243
0,299368455778611
0,302631671845668
0,303870882545242
0,308252916003929
0,30440486770102
0,305233257967307
0,310054571783516
0,315166486996683
0,317737961136804
0,320381201971978
0,322898660600499
0,328305483471736
0,324596036674933
0,324788455298228
0,332726313773422
0,340800569794825
0,341735599610678
0,344491591184129
0,344143289666668
0,34519319494007
0,344710149652574
0,352483313052443
0,360801690473634
0,352615806449323
0,360106450682059
0,366062069422611
0,364895213057112
0,367048226520671
0,366822993347762
0,371956640821652
0,373933020742293
0,375983923382471
0,373284953852885
0,373884504770586
0,371217102685025
0,370350447639316
0,376075551240406
0,37968066534463
0,373761425733798
0,381009730226641
0,380965568425462
0,378168815973059
0,38052790129865
0,379498948661251
0,373889584447887
0,370306857581035
0,368116861351466
0,370814431361026
0,364868426238125
0,368523316425814
0,377353430311473
0,366510192237246
0,367130553464938
0,363884551522401
0,356550311211702
0,371439009354082
0,369644602501325
0,366471137851976
0,364064698346199
0,362347215818476
0,367319184502065
0,367639939998059
0,364555167225271
0,364384301973631
0,362619605044821
0,373318238397232
0,367788468939002
0,357884625018087
0,366756408874237
0,366129726313461
0,361684923943986
0,370150731983264
0,367716889414233
0,369260172019584
0,371099563877676
0,369944756215969
0,363697165251778
0,363197802049113
0,359825933562169
0,356400583429035
0,360360734508855
0,366073960538984
0,363248931383745
0,357456088829356
0,356982415182974
0,359746593272165
0,360735064604159
0,359993485261855
0,354379290716526
0,350841849162859
0,348919437830418
0,349996446532153
0,345628962197437
0,345645813532048
0,344102620755948
0,340572005454318
0,335479334066762
0,33583852906131
0,335932607515109
0,335367007689107
0,326842792195776
0,32499102236461
0,321457140704087
0,318827802309324
0,316204256217914
0,31112850561474
0,302246400652644
0,302339784651551
0,303421155328614
0,304625168977993
0,295145569571813
0,290382010719626
0,291573907100769
0,289027088856486
0,289412374509873
0,283249624829884
0,279996447679984
0,279632029662767
0,272934332073774
0,273581830334946
0,265793296104108
0,26650774656607
0,260531730270452
0,258782662018787
0,258181981655841
0,254110486851142
0,250504598400353
0,25617187933282
0,253739795209332
0,245150194713324
0,240921273944913
0,243718565778806
0,239152703659038
0,235041827098945
0,237636885192047
0,239033607388623
0,234044821224037
0,232530451144791
0,232175253631504
0,22958703624238
0,219686435692477
0,221511386231072
0,225604526199973
0,223007690768158
0,220669319282463
0,217004650567426
0,21375914233271
0,218601120491257
0,21806791906068
0,214056750838662
0,211459281845251
0,216723443847518
0,212514708459278
0,21050416936357
0,209085218090502
0,207405678520953
0,20492109204804
0,204075577498855
0,205081698126107
0,203905498654713
0,196582830849172
0,198102361998785
0,195734176666601
0,198819669144009
0,201134792314024
0,19585014455425
0,192825694090332
0,194356677064494
0,193571612061334
0,193308288386079
0,19120279067338
0,191950382876229
0,188959729456535
0,189574253532721
0,190700335469281
0,187870835563383
0,187640277939997
0,184016141879735
0,183491819421462
0,186086826234916
0,181392289705465
0,180427944580835
0,180869882590896
0,177903835926099
0,179379566075692
0,18070866948507
0,176777018051597
0,176519739202263
0,174470579079729
0,175299657157998
0,177404102327886
0,174099474497835
0,172505737010396
0,176049686933539
0,175502041330167
0,170636996208907
0,16927136322016
0,169319965217948
0,16768409374267
0,170237909621922
0,169353542112424
0,166876264019161
0,164185519176714
0,165862005116359
0,164221000745349
0,168363499989165
0,16459708621255
0,163350689966307
0,164696885487238
0,166632525354785
0,160038864276994
0,160300114193133
0,160060276294272
0,164190028010492
0,162097691441175
0,158105526875867
0,15878690110001
0,158563639693921
0,158097663467056
0,162633765088584
0,15899371760241
0,157941620636322
0,155447742196776
0,158808795786322
0,158770287294136
0,156873836461974
0,15621836435265
0,155834451177508
0,156979144964355
0,154980279839045
0,151524712259246
0,153858645450031
0,156035557400853
0,154007348391388
0,151250861940546
0,151318649724736
0,153788346596594
0,152145723376827
0,153068136163228
0,150964001429752
0,148839441028198
0,152191738796076
0,151008699215516
0,148824157749119
0,150371284139157
0,153431412438898
0,1486271981497
0,148680964962469
0,148799258832621
0,147686353963435
0,149333492310236
0,148426809842177
0,143362338362819
0,146160595201238
0,145882507709112
0,145379448489088
0,144568127502863
0,147477186558309
0,147593577538271
0,143059485773876
0,144250679559198
0,146139564585154
0,143639518800315
0,141662417584289
0,144639206880398
0,142728819267843
0,143813184286834
0,146237954367126
0,143706924561972
0,144375547182673
0,137148096584326
0,138051198463092
0,141525496458577
0,144239127054198
0,143233421062352
0,139490850481985
0,13868501125113
0,139673910957405
0,137311569531746
0,138856783760321
0,137635312641425
0,137918425904621
0,137044010391229
0,135766510490383
0,134559261201932
0,133716112271271
0,137108017731719
0,132717550525283
0,133162318397914
0,135192682525553
0,130633798515487
0,129368206815565
0,126418563933024
0,132835596339452
0,129547827998542
0,128310633064956
0,129381081906628
0,129309577435215
0,127901344617781
0,12937633678844
0,130214312409063
0,130140955467049
0,126435146957301
0,125789713595731
0,127753920819201
0,127138424086565
0,122035753277873
0,124318555800243
0,123708735360763
0,12120266108769
0,124248137009776
0,122057818929262
0,118821905861157
0,120384363749261
0,122300545050511
0,123180100177319
0,117012587824664
0,120309497699403
0,118524771855471
0,117378758066595
0,120179202052729
0,117432208986829
0,116605654986875
0,115440832991959
0,115994066629868
0,117013291648075
0,111831226885532
0,111180627071931
0,110820533501434
0,113470069738208
0,111418752970525
0,107140807370859
0,109606239427043
0,111688601987306
0,106495237391918
0,111061559369431
0,108507023586439
0,106089946036728
0,107042374994463
0,107949715756046
0,104288429137533
0,104782100714494
0,102102801644674
0,104053703912956
0,101368638053156
0,101048457951613
0,103570610911969
0,101135596118287
0,100445855980403
0,0995629902588794
0,0994080943212689
0,100403122214737
0,102183640519343
0,102972514815373
0,099703317195542
0,0988183125083944
0,0956959129828382
0,0966869589204708
0,0997148058425586
0,0971735687857543
0,0958898844879867
0,0949167709565949
0,0920146005085442
0,0930244490117081
0,0906223897417311
0,0936057914399326
0,090184224080173
0,0935629921105523
0,092371817037446
0,0886570713203692
0,0900215031134477
0,0907587711757674
0,0901131748937817
0,0905740325705828
0,0911262665563989
0,0900016449134931
0,0876377341670892
0,0871533203310215
0,0886372257256909
0,0875211747123582
0,0863452001630509
0,0849564692223525
0,0869503346162131
0,0856843456693915
0,0874482723717959
0,0840319415250473
0,0836549063388655
0,0850154051035108
0,086387150270226
0,0864392245233224
0,0837657751745306
0,0839422814049642
0,0840502554814912
0,0801455676796668
0,0820543420739927
0,0817898181650233
0,0786258207475781
0,0804449889294343
0,0777736697823187
0,0810142435825524
0,0831266044125517
0,0803808957291885
0,0785609813155555
0,0814713937833862
0,0764189966546058
0,078367410340389
0,0765522869092768
0,0769898998354221
0,0804451714333217
0,0796765597873991
0,0791202437696486
0,0823124022977408
0,0769214854928529
0,0806626371856329
0,0770610851873899
0,0774238913928761
0,0762480722436802
0,0744069589267382
0,0764799875823185
0,0729927793723065
0,0753809015720267
0,0779308784330117
0,0762485225019731
0,0739901122187675
0,0721575122987202
0,0741061895424856
0,0731101957216072
0,0771870349834739
0,0765329122524414
0,0735061722134671
0,076396607127987
0,0743003830613343
0,0729293401435276
0,077461728644334
0,0729524649263287
0,0716044254535815
0,0725472718341942
0,0700240644173866
0,0738684080150761
0,0712335085133586
0,0735467957056378
0,0737476571366336
0,0708911728542629
0,0696146717209828
0,0723253505790113
0,0714485559452388
0,0711132969229328
0,0684888714661382
0,0682014815237632
0,0730471296598474
0,0713315939393244
0,0692329448365134
0,0690308140482762
0,0709381614594449
0,0689667049118723
0,068309917695911
0,0681382327710457
0,0692122114251599
0,0704774714689592
0,0664007902182437
0,0662625130726196
0,0696109672716122
0,0695365599782335
0,0670708324062547
0,0686619697657589
0,0677322801885136
0,0665646496721733
0,0672657063621967
0,0647207529524132
0,0672460924366153
0,0679939330682183
0,0657274568187584
0,0676170055548325
0,066491926924919
0,0639706627208046
0,0657574474390496
0,0619424222751724
0,0645384782206694
0,0637305094385844
0,06656020585548
0,0627222980304337
0,0646977311278881
0,0673607483714183
0,0652603652713593
0,0618253495562674
0,0650955085594412
0,0627069965886885
0,0617353795690766
0,0646483834104508
0,0619896366049034
0,0629361584444007
0,0636104118051049
0,0632849818499427
0,0621552340926791
0,0656488676888967
0,0631653420076526
0,0619154566703728
0,0618194699301029
0,0619246865784225
0,0626532895211673
0,0590689595408438
0,0589608237086155
0,06020541938287
0,0588337317925187
0,0608702633286904
0,0604814263361121
0,0596374129380628
0,0590666053955713
0,0569273341397364
0,0593589201395057
0,0575347247996007
0,0605990063645781
0,0592960144575425
0,057962602540086
0,0557537178124991
0,0607813801600209
0,0567031853944091
0,0553287993429527
0,0547898173900749
0,0550748898808924
0,0567679108373755
0,0550021323592561
0,0542295275556596
0,0541145056013218
0,0565449768484606
0,056858306427278
0,0570391278382438
0,0558215090628739
0,0545598044240871
0,0544546869353927
0,0555395097224096
0,0550131326215543
0,0537362887307805
0,051731136819184
0,048503879705334
0,0521788921216749
0,0524828974175344
0,0489061973030998
0,050233924578599
0,0533760775054933
0,0509345810464297
0,0506294446148103
0,0516979220896698
0,0527375068634626
0,0483251029280372
0,0487509168820613
0,0482998751221797
0,0483775515878056
0,0492355096960167
0,0451060202935067
0,047785021339709
0,0466404452140592
0,0451445839372955
0,0487605735238801
0,0502698083605652
0,0487183835333236
0,0494989821443128
0,0485209353640151
0,0456215332606047
0,048564740448223
0,0466687441027617
0,047532933019118
0,0448687949726339
0,0480567240241688
0,0475353494912891
0,0424034281955976
0,0434686443491961
0,0414768754973691
0,0423286736372777
0,0453031096340098
0,0450005562719365
0,0445239690237283
0,0445043181528107
0,0433635730207393
0,0430069793370625
0,0466020664936775
0,0434785685798247
0,0398639144051461
0,0438002328180981
0,0428814109827043
0,0449281924415656
0,0434936771309028
0,0407898983203737
0,041556484037569
0,0413247530537634
0,0404898515171477
0,0418346432382603
0,0435547761721197
0,0423272037232856
0,0435055573341773
0,0432971020658185
0,0386008301975735
0,0410339127075918
0,0413899533589472
0,0380765223276467
0,0419584403416769
0,0367632105320519
0,0397697433296179
0,0399892633985425
0,038633742899143
0,0415867111502868
0,0390565795940742
0,0401144111224379
0,0385306075348862
0,0386395154965584
0,0382877045334274
0,0393439308819734
0,0394337724007286
0,0385362016994429
0,0385711789756714
0,0378844537442835
0,0364497400339636
0,0374593236287712
0,0385814310162619
0,0369656475753939
0,0387708183577898
0,0376453928891379
0,0383420726406341
0,0360771346705887
0,0357117387327856
0,0382993964147077
0,0365970550517321
0,0344522481628563
0,0346324913806731
0,0360471872448485
0,0356270557078852
0,0335425245682263
0,0356121487408159
0,0335485950924447
0,0363749699739223
0,0356506064714238
0,0338974291996309
0,0381906983834924
0,0359354173976799
0,0360018354049746
0,0335847699942147
0,0331622684699741
0,0306113045039217
0,0364121841084765
0,0358802136708003
0,0298401875435589
0,0299256972267582
0,0340090764516979
0,0328101333004674
0,0322394320892547
0,0328580879609046
0,0324925975848812
0,030449555470674
0,0348735368146298
0,0302123677469637
0,0356247173452852
0,033110992771089
0,0316955205044403
0,031475457749527
0,0344399485683006
0,0365518749627308
0,0355537300545433
0,0324039200360674
0,0350955290283177
0,0311110945728127
0,0328659013272544
0,0315475203838452
0,0352330286871726
0,0348477849871515
0,035458026029492
0,0347222200822196
0,0377873038383753
0,0350683233780295
0,0336279408216244
0,0350453303744386
0,0360181878000127
0,0331818866042139
0,0352594874196219
0,036357547922196
0,0308437423187258
0,0312932440059324
0,0305271484387205
0,0314299912546314
0,0297226972528133
0,0309533685859138
0,0285052079934962
0,0314802201833627
0,0280307517780773
0,0327826843187805
0,0296841326390867
0,0310865994433484
0,0267580128041125
0,0317077358056549
0,0254113195467259
0,0352959738714341
0,0265912639678164
0,0327582905769545
0,0295692264696965
0,0313641885306518
0,0305628012933789
0,0303998015163723
0,0315766591797431
0,0316855235784678
0,0292619798523138
0,0307934599617388
0,0270122206529124
0,0313138967092057
0,0307277019297824
0,0283436728599098
0,0289036748889735
0,0328301374024115
0,0321920737531725
0,0308357266096857
0,0288278983400626
0,0300996272012954
0,0308355949776305
0,028220962259846
0,0310425471312762
0,0319987140164138
0,0269366835283309
0,0293796380822918
0,0293472070227138
0,0279740647325675
0,0299232792107422
0,0290043099259943
0,0322537320106656
0,0308192760287554
0,0310969122769473
0,0302949798402687
0,0292050608507954
0,0321954009714795
0,0294872995192806
0,0284580589600881
0,0298520882044136
0,0309487641497634
0,0291089490654966
0,0287815451238526
0,0301001022559009
0,0307169839206191
0,0295468056087909
0,0304783282047113
0,0276880303120463
0,0290777184695359
0,0309002638696885
0,0282449411118392
0,0298434641561116
0,0300401282766693
0,0287967846543218
0,0280828910730551
0,031940609552155
0,0304379874315438
0,031496399993519
0,0314362609179352
0,0277218147833397
0,0309421443109904
0,0299287059861772
0,0331895634793258
0,0298952509654805
0,0304860721093635
0,0274289620419885
0,0309873258441315
0,0299297069612326
0,0286225137127889
0,027218128416645
0,031328677100223
0,0296638027331653
0,0293963478363747
0,0269867151806814
0,0313488637800229
0,0293540961949015
0,0301912367168571
0,0320452126909765
0,0333439903437794
0,0310719286239125
0,0299056374400585
0,0305054871163469
0,0269954584346827
0,0295423367287693
0,0316486354688278
0,0275820193693663
0,0298657154965146
0,0323206640328938
0,0287707261705114
0,029904505640702
0,0306846336964817
0,0292250688101604
0,0303265293640653
0,0316226010613192
0,0293832504488095
0,0298041242533386
0,0297835340312867
0,0303164466747983
0,0316905432951487
0,0307533719853517
0,0278526701027878
0,0301430645760611
0,0308165261214295
0,0308386788941662
0,0329923889850567
0,0309141826552506
0,0297761318988834
0,0315318612560923
0,0297817323189361
0,0309150408192983
0,0299739851192403
0,0299867508949258
0,03305802319727
0,02949536196414
0,0298425181077595
0,0299306036503004
0,0315769667521587
0,030842792265609
0,0306967572948496
0,0306801230717456
0,0289883474632613
0,0325982160154337
0,0285225236897641
0,0331502781194037
0,0314618864156183
0,0305771435110763
0,0331776884516914
0,0302821408478586
0,0336487435344116
0,0329737698849679
0,0297705747778404
0,0305562040096923
0,0329322940332897
0,0296171139233059
0,0303477911734922
0,0324836590755597
0,0311861108159401
0,0317270337436844
0,0322507683318883
0,0308056350211177
0,0317491424658799
0,0299739900717916
0,0333787949118153
0,0310531917815281
0,0305967766540033
0,032541786693389
0,0307887555263629
0,0322178707596339
0,0333651673043386
0,032429520506539
0,034953771618074
0,0327463836885494
0,0308278208655935
0,031767177163687
0,0313063072898147
0,0326264040712933
0,0322843309689384
0,0331021879459872
0,0315886080503373
0,0325846727937827
0,0317090510207605
0,0310667214942285
0,0323578398890117
0,0327256336220059
0,0322199177277348
0,0323921133326667
0,0340412399902883
0,0334650745037151
0,0304904085626537
0,0329934247665571
0,031813070823237
0,033621117633413
0,030298093270554
0,0331606408446896
0,0340729951598525
0,0338246384754419
0,0319016536377489
0,0343174216400804
0,0340302696740781
0,0329156442917128
0,0340877047501516
0,0323831242356723
0,0327902915067967
0,0327130237405276
0,031451254488499
0,033887365094617
0,0323650034595808
0,0341603639763194
0,0348923066552367
0,0321204253534384
0,0322451555649899
0,0326820756326183
0,0309500270049824
0,0361662233390006
0,0335888363427723
0,032361330068127
0,0327167831475587
0,0334871150124116
0,0314980276928994
0,0318273082924467
0,0318499516357324
0,0324181990733704
0,0317791441147562
0,0330154809908555
0,0319143643347285
0,0330047910806722
0,0316320473504789
0,0301397006441433
0,0319318077808539
0,0294623586061205
0,0300387822502314
0,0312451241457999
0,0301949731824579
0,0304867653769189
0,0316620053732629
0,0309311965373821
0,0286497526782037
0,031684400367012
0,033003925879844
0,0311960157866856
0,0317545231196834
0,0313174874022304
0,0287882478751105
0,0310120937252682
0,032758130449889
0,0289367548274615
0,0306321255740972
0,0305445825758786
0,0292719401993165
0,0288323730389939
0,0299700820051583
0,0286343143941994
0,0306255718956603
0,0309972136046614
0,0296199325490903
0,027229849702345
0,0295397283227283
0,0329292039915339
0,030964333189328
0,0291597347992265
0,0302146323189693
0,0288458370923378
0,0286208299259613
0,0300526332720134
0,0295571436032705
0,0293989675904451
0,0301834228135215
0,0298400706004925
0,030815471026057
0,0311134750973184
0,0297313075716296
0,0295444752158804
0,0324676876358821
0,02847055210571
0,0277226872398692
0,0305330607992613
0,03010268728555
0,02720332070764
0,0287746960227832
0,0295028810067835
0,0311828737191858
0,0298072626686666
0,0307735694428786
0,0281515640695914
0,031227561954156
0,0277860611059688
0,0318346695187074
0,026750851912256
0,0303291706150851
0,0303868078455262
0,0288418086819443
0,029904753410226
0,0296548402414582
0,0293351754272217
0,0295334564239844
0,0294915035578762
0,0291605763451327
0,0306222138707434
0,0301581436576135
0,0289162821981515
0,029620245413949
0,0298998669142053
0,0292862121921011
0,02880553200672
0,028542030054219
0,0297254282599952
0,0269786506213986
0,0284431741748592
0,0268250694623259
0,0290173600091971
0,0270668407406043
0,0288142254475246
0,0290539178622048
0,0291125964285905
0,0291383319309203
0,0280717706674122
0,0272338405011295
0,0281081538491013
0,0301799204316005
0,0295213322641262
0,0267929392632622
0,0297390151621553
0,0273016244167554
0,0291790709918576
0,0278130720406985
0,0260650863876673
0,0279420972131054
0,0278114838847982
0,0250492387764651
0,0284983984801022
0,0279925855528911
0,0264308058155658
0,0251679156341012
0,0260702807379194
0,0264374096432705
0,0263938426790322
0,0267720927889117
0,0271260823545391
0,0245462184362676
0,0263488916603752
0,0280459306484846
0,0277126097947098
0,0270970710699977
0,02609321223094
0,0254099204214404
0,0240896825453414
0,0252495285466792
0,0261860934292751
0,0230339138153535
0,0269580444836478
0,0241607994617886
0,02379569707812
0,0242274887716942
0,0253770989578672
0,0233910092134578
0,0255293771099176
0,0238296616131255
0,0254700532481932
0,0261953635326848
0,0262784920872318
0,0265937497390738
0,0226271310943355
0,0235421280339926
0,0252618022470363
0,0248519168613989
0,0254549258959661
0,022797495199932
0,0253286952720498
0,0247820882753709
0,0240159060562264
0,0253371535879392
0,0242551701886082
0,0225823070977971
0,0232954364228495
0,0235569258974159
0,0263252881178108
0,0234074454063749
0,0256257288699424
0,0227785307964273
0,0213502989143863
0,0234969681946806
0,0229529617049166
0,0237795554489988
0,0231679731354324
0,0219328335427918
0,0230303748583262
0,0248463963316945
0,0234512640197993
0,0208124521937817
0,0231539829200485
0,0233783282668967
0,0225086145809908
0,0225824561208625
0,0232802408505492
0,0249065923009219
0,0250889970395496
0,0233611374015197
0,0207413350304227
0,0213488380243732
0,0244252487886337
0,0253540281328974
0,0239888978165294
0,0243364835362401
0,0229219597927203
0,0235830079545556
0,0219486643716465
0,0233447165401837
0,0225082762642661
0,0215292236755468
0,0225609538775021
0,0234843519380435
0,0228858376034903
0,0218918992713283
0,0220468252325053
0,0234949303750105
0,0212591828431441
0,0209515852250392
0,0221974167253095
0,0218546885104031
0,0236939529480199
0,0226302474643301
0,0234588155205832
0,0190287423845795
0,022816574578001
0,0218534934398626
0,0202105238196237
0,0208088312188996
0,022616820847037
0,0212207454334355
0,0232875484041869
0,0226281229739225
0,0244185399487872
0,023914012659867
0,0212549019103349
0,0212766213013438
0,020929016131596
0,0210075137119144
0,0221330860913433
0,0235540865191524
0,0230215867845475
0,0204556031525817
0,0230907667020182
0,0229606198193846
0,020238177310748
0,0205108813376788
0,021821730219051
0,0227854126475968
0,0256286925864039
0,0223968769149027
0,0196377275094118
0,0228601604825447
0,0218906524147001
0,0218718959071098
0,021567020751177
0,0245534252787556
0,0207005789416905
0,0204057524906069
0,0196881579750268
0,0207765155267775
0,0223609883633704
0,0208414376241682
0,0206702341773583
0,0208100774458198
0,0219518326171636
0,0226170504097843
0,022021745607473
0,0208337470159165
0,0208258292396843
0,0190001664086601
0,0220414121875386
0,0218238141273837
0,0219581917351218
0,0214358453957049
0,0207765950308483
0,021838783665398
0,0218915580303238
0,023524647210931
0,0228914231985338
0,0231936588744316
0,0200756241793969
0,0212752168703838
0,0213194232225062
0,0227377645127579
0,0220330096288327
0,0215377619049431
0,020591291368681
0,0213621654291011
0,0212167684393482
0,0213289640315957
0,0229970448225087
0,0228703525785579
0,0229513447047215
0,0210971181820511
0,0239032828510992
0,0224687259183118
0,0209940555588771
0,0225444986589339
0,0215240278367525
0,0213925224719605
0,0238613574609332
0,022285721549541
0,0218397496695795
0,0243158604153207
0,0220261758173607
0,0210779807497497
0,0230793708581648
0,0221368651770401
0,0203447991950156
0,022347098853081
0,0219302303518926
0,0236941781961788
0,0211408823073937
0,0230351708857052
0,0238795139545943
0,0234704525941931
0,0229146258057756
0,0234906839433848
0,0226714477797821
0,0253249841405382
0,0230460754542986
0,0241889486655375
0,021138251826921
0,0212419278720881
0,0211254587249445
0,0227505091488036
0,0218846238305299
0,0251213501652999
0,0226544087843472
0,0181469393882623
0,0225832848373776
0,020658627154163
0,0244336104713445
0,0235238994486305
0,0234982431657607
0,0231665290302633
0,0218834581770425
0,022800421011079
0,0235150609910616
0,0234796499524457
0,0255913980894079
0,0227555975119363
0,0244761073980928
0,0261145663996163
0,0201477799546809
0,0228169675015593
0,0244943543301773
0,0250161146435249
0,0271819382221122
0,0203424237462342
0,0226862556180483
0,0242043146204802
0,0233937252549268
0,0246450189121251
0,0245960964422807
0,0221921127369451
0,0239286904557935
0,0240195462039309
0,0240342665094353
0,0254909389968275
0,0244004759443253
0,026906415025171
0,0258037943755312
0,0257858051091785
0,0261439081917093
0,0235875472861066
0,0262512267403093
0,0259970228980713
0,0256871968002459
0,0268646131448826
0,0247730485174438
0,026019911714642
0,0256912742358085
0,0258571894060939
0,0231297752267354
0,0245234321926169
0,0259436815810829
0,0247186123229794
0,0258468862573384
0,024658091833729
0,0274816480371802
0,0254375765592469
0,0240030124010272
0,028814644616098
0,0207698871635899
0,027933767254299
0,0244785763244033
0,0263730084994791
0,0270710877908532
0,0270635814595952
0,0252518071717841
0,0306107313363667
0,029514859193785
0,0289356653721652
0,0289491159108116
0,0281315350045406
0,0269652162624095
0,0240487857635254
0,0278982803227858
0,0280591110766284
0,0283641653682449
0,0289254761153771
0,0295138995758155
0,0260982206146979
0,0327146567315766
0,032624489960787
0,0321617722160154
0,0294573341363125
0,0288127088433577
0,0365527884075861
0,0316259988840256
0,0308187681408787
0,0304896991707314
0,028918364652828
0,0317326188052604
0,030741813952651
0,0351574519236842
0,0310591145890355
0,0340278836631184
0,0342761496529801
0,0316903752088688
0,0353111352925583
0,0322258703888534
0,0330215975090371
0,0337615636272687
0,0338567705534997
0,0348030327617641
0,0368914756385457
0,0347119118680334
0,0291647339354412
0,0392874307731076
0,0329967881479573
0,0352567414879245
0,0384481351376741
0,0384230923199447
0,0370614701347987
0,0427672758105616
0,0386263888953487
0,0394214750160925
0,041511218843461
0,0476350731495128
0,038472837076037
0,0429227809087859
0,0438477577148394
0,045755629483607
0,0488127621418355
0,0501921131773679
0,0375806315157494
0,0427196350412166
0,0463250265480787
0,0523657699310109
0,0498716850017193
0,0482009264318258
0,0488935921402722
0,053006432112826
0,0537058388086351
0,0527921680921507
0,0525974789775111
0,0543871468698902
0,0563179716325632
0,0565137627739249
0,0551265525719204
0,0612235370830149
0,0581493300993266
0,0605757679995794
0,0565025783942936
0,0590630826946797
0,0612647829025135
0,0619311180539872
0,0639517932923208
0,0627023831872837
0,0637167144016596
0,0640661480403299
0,0663139614450076
0,0675495694582693
0,0700601865161595
0,071403984331291
0,0684139312834001
0,0735567287527765
0,0703721068741193
0,0783301329672158
0,0788344158728408
0,0873080177350416
0,0753856543495263
0,0834288226759898
0,0887342334986844
0,0906625817490417
0,0982227599773167
0,0845926200892342
0,102913691897557
0,108012753242328
0,110017470308347
0,117791464694643
0,119687099689435
0,121306935647502
0,129158151451849
0,132479248710822
0,135749299607322
0,142705709212492
0,156666307777844
0,148139675634969
0,152872155684743
0,163717843887336
0,166796675425972
0,173783860041003
0,176421143657596
0,179582898373988
0,189018464616345
0,192522313687096
0,202311593763951
0,202943344992703
0,206360039634102
0,21463827958292
0,22360329435587
0,226824584725658
0,227749099706688
0,23464416695582
0,23602093698142
0,249003542888779
0,252719837922974
0,259089400653379
0,260053039154258
0,27007163529441
0,269638175860581
0,27164441154278
0,278991917998981
0,283375064804171
0,286463440838768
0,291703902456037
0,295718860609217
0,299574854117181
0,302654328849293
0,312953181804246
0,314283075421426
0,327981679300031
0,301344020729762
0,301839475577912
0,304249382894182
0,315254384880158
0,303691127333617
0,312484818688863
0,317406096968554
0,301483307630159
0,304791426041223
0,30052145161774
0,299205746932265
0,303740651478677
0,30233147041297
0,30344692502433
0,301152332502082
0,30744172393528
0,302347316069447
0,321074576460802
0,304674148227854
0,30436617667586
0,298843220715362
0,297956270554539
0,298186311425231
0,303362602993582
0,295600876925628
0,296740136418178
0,290809604724954
0,289660782864627
0,287276361634253
0,286497128700316
0,288281389265864
0,2766744507737
0,275975280838472
0,276008354384869
0,267333591277198
0,270656509192525
0,271801667872269
0,279730900739713
0,26362495555956
0,261101230199474
0,255257481708346
0,258069349329957
0,255902912537697
0,252256201805123
0,251909455553015
0,253076230611815
0,251254049289503
0,251206948726599
0,252309200888212
0,249867760960219
0,245870939521341
0,248464939021695
0,246800040774264
0,246252086769689
0,244238109900343
0,243268076349179
0,241914459222209
0,243785637436926
0,241910486412756
0,244366171396368
0,240817231913989
0,242860860491069
0,242754904859701
0,242141384564312
0,24191360007008
0,24352159473617
0,239254630686906
0,242181916418585
0,240739644927046
0,238332602707385
0,235068301047501
0,238492197482859
0,240411356645375
0,238377472205928
0,235256662344544
0,241054246309588
0,238171583315992
0,238517335586448
0,238783431634063
0,237605724306588
0,240554559224794
0,241547111942732
0,225890839137236
0,231472333471392
0,226959757214524
0,232213310335194
0,225652484615226
0,225787687881115
0,234456846008673
0,223405882548473
0,223081915579905
0,220871908824015
0,219665084566493
0,218217935776213
0,216217494736115
0,216322137964131
0,213301477126767
0,21359976856783
0,21707070196621
0,216575642452248
0,22011823024545
0,200976885832031
0,20109104223013
0,20208560801462
0,203261096947049
0,204382121189419
0,201771793244372
0,202692568911721
0,204578812557142
0,207799451700681
0,196800609606198
0,201444322784026
0,196831320159085
0,19583172389338
0,202798057176619
0,195174341255049
0,193449529774417
0,202964756534921
0,186279386372541
0,184947421769378
0,194103036228575
0,180733187459477
0,182121262949985
0,180209769599108
0,177562501150552
0,174927881145118
0,184103254520913
0,175795715255075
0,165488848724085
0,17658642072006
0,169383384843365
0,165055754998705
0,166857542214313
0,170879241575303
0,1590446167677
0,163492981393866
0,163125308466406
0,157061897461522
0,162200537403079
0,152190280164819
0,157705753038817
0,150907618905166
0,152580690677448
0,153871885894242
0,159534907705692
0,148359733901257
0,147946174143039
0,144641150083967
0,142679766495362
0,149944819692731
0,142710588702597
0,141870942660471
0,145655137858937
0,139885660719056
0,136504735612822
0,140013263828899
0,132070968137179
0,129030587496013
0,128735278922467
0,135868661865732
0,136040944643821
0,136476498363142
0,135130233912811
0,135357371214213
0,1371177367191
0,132360575109836
0,142292161342015
0,142684010081476
0,137294101968361
0,141126398545615
0,139251075310335
0,142989281924562
0,144837489724914
0,148349482420995
0,149726861898377
0,146527809106385
0,150419982303757
0,154406907139922
0,15228715039788
0,163034070740588
0,160240745814362
0,165065331086553
0,166642325756275
0,172962194444483
0,171668194242854
0,177733488107828
0,183200169462543
0,186080379640992
0,189741069420056
0,193675812240205
0,195511261805871
0,205813938216645
0,206824175744442
0,218505656616836
0,213842560324714
0,226578679761359
0,22708985618621
0,233537599064135
0,239893241889943
0,238221437679401
0,243634349836756
0,243585110512189
0,244826838032102
0,255296019618493
0,251274130162553
0,261356403290877
0,257895217428639
0,265577704040065
0,260387757002308
0,280686125906782
0,261717546597183
0,274991453960653
0,273384491231652
0,277945077868914
0,28238391370398
0,279259848337801
0,282334539492702
0,283536882777283
0,286144182704311
0,29235382998749
0,282480917149601
0,298779602759405
0,292891195614732
0,291669481235107
0,294609977978194
0,302294664924106
0,299642869501673
0,307838571328597
0,308261940871468
0,31218520914245
0,314803082133533
0,322456211903398
0,313679167726391
0,322864173320727
0,31415791445411
0,324681654014193
0,328003059063402
0,331057738175644
0,329890327293658
0,335064961877155
0,328872306433809
0,338507385703675
0,339434646454994
0,343923653133194
0,343909949947228
0,35316529728385
0,346260217166406
0,35593931972989
0,344957594167773
0,372650121028785
0,35982259208187
0,35673772812721
0,355509026456851
0,365186601388484
0,364227184529349
0,365044182401666
0,366693076464113
0,36960719994509
0,364893107884309
0,374142074734059
0,368992178882956
0,36643651438526
0,371264666903416
0,365787515669718
0,369849305591382
0,374317704478682
0,359377502454035
0,367998941272554
0,360928247847407
0,363156128778053
0,362727958513914
0,365641895694197
0,363580237646147
0,361838693061799
0,357660726176354
0,363469386583512
0,3623951472973
0,361444384142442
0,359967783479768
0,362533891076367
0,358888063976412
0,364359079418837
0,362153430367177
0,36601640947463
0,366424357847967
0,369499538187379
0,368443238353163
0,370594500665872
0,369949688462558
0,377272064277063
0,374508341777593
0,379205780186206
0,378610559435071
0,376453197513736
0,380038800718612
0,377201555644087
0,373083712276901
0,37906877020445
0,37322518892419
0,376496656224313
0,368160728168068
0,372774074962023
0,366324007678539
0,36996145077993
0,361599074240619
0,362655532564492
0,355195465900617
0,356029654410057
0,348401822977745
0,352457081794839
0,346810563326073
0,339940802214908
0,336194246404794
0,335617123437514
0,330597129559817
0,331640600685016
0,324511667539127
0,330179311874779
0,321174984945678
0,323251498688301
0,319515041256803
0,313455847595009
0,312793640911175
0,314822969270748
0,310929442130208
0,312138626132905
0,309530451936971
0,311251202603485
0,3087769234071
0,308004183969983
0,312506444603179
0,307745769018876
0,304474908427024
0,309089210790722
0,308175843540412
0,307259580389944
0,303098994886792
0,306449954926131
0,306869801633921
0,306150123052681
0,306883555304321
0,302180123860866
0,307877376478278
0,304615813743892
0,302806956840618
0,306629511896688
0,299235020080156
0,304604318992742
0,305381132744574
0,307600573530063
0,300011522295183
0,309063014714922
0,302014638279376
0,30212599224257
0,300267936009605
0,309327978751306
0,30228250957328
0,308651138551187
0,300324495055861
0,30057196763811
0,302274483341185
0,304877369050829
0,300559941529506
0,301874069037867
0,30210972994063
0,302936123896328
0,302053834969165
0,30096218534067
0,305487733624711
0,30061985217105
0,300193600101601
0,302415542100012
0,295524345163868
0,293983525265742
0,294332287425059
0,294731514120072
0,290104396368905
0,288865478856594
0,284619400596067
0,284561546279689
0,282314307752696
0,278945321376151
0,273245006837353
0,272299800267654
0,269424168087694
0,270093571412601
0,266248684695966
0,265180253546515
0,262855414503986
0,26323710229791
0,256762606720655
0,261865136190402
0,259800378746133
0,258980418106095
0,25501757569933
0,258197452243224
0,254761317694469
0,255358449299347
0,257196230354777
0,259089282130016
0,253486369404833
0,259378976923108
0,25880959383067
0,258311135770549
0,258010431618986
0,260223734745937
0,258541954541458
0,263002141920468
0,263904423478225
0,262472224735757
0,263529289505272
0,265505150911323
0,2662457398804
0,269987043887118
0,272237413045178
0,271405772384376
0,273167572909083
0,274645775420896
0,273402516019833
0,274784014939868
0,271441932852092
0,276225847835335
0,27466874225665
0,276885213362527
0,278822336951536
0,276155160374819
0,276171699667951
0,273009381234088
0,278277408060722
0,273449268594059
0,273336065499929
0,271756079010289
0,270774267646643
0,273181327695132
0,269015313026276
0,269138780108111
0,267133243241177
0,266666137161367
0,265652281623003
0,26569169614276
0,264103884961005
0,261711856217622
0,262301599773778
0,263566610066574
0,259168456787686
0,257830858865533
0,260840162290649
0,25854470433666
0,256099162059558
0,257274626335518
0,254292823447312
0,255496258109619
0,254405263788
0,251267676016955
0,249966911212812
0,251503559791194
0,249711872275233
0,24923365927687
0,248767756355633
0,248868456712374
0,245356679488939
0,246060290775992
0,244771833044998
0,244347924969478
0,243836285153348
0,239974988486841
0,241155541895216
0,238120896821467
0,237490599167518
0,233194962490641
0,232127568684161
0,231799411153834
0,227901954576317
0,228702753390087
0,224109034393987
0,226307530013707
0,222957765805841
0,223119056392924
0,219544152765461
0,220832445374451
0,218868957320649
0,21681846836085
0,218770747247126
0,219740744804774
0,218440916530406
0,218569761514332
0,21939171068101
0,218782109787431
0,215190010111335
0,215739654463744
0,212801802658144
0,211480498696757
0,210008199031091
0,207803050445258
0,206674290032606
0,203420292328564
0,200725253006014
0,197947267754551
0,196967955877597
0,198160708216443
0,19992387889375
0,201101667217826
0,202127800181212
0,208407951029653
0,211897108990664
0,216872062331201
0,222724414293692
0,232876229744758
0,239852584973986
0,249188234099013
0,261421440950129
0,271868451457262
0,285072279139134
0,298063476766961
0,308330153897925
0,322685881383773
0,336168097263712
0,349158041517581
0,358522877575396
0,37208016678126
0,383826264552988
0,394732868268236
0,404798232654371
0,419111849094118
0,428628601140706
0,435387387952358
0,447824204443072
0,454913320261511
0,463365235875329
0,474454022851562
0,476586238184498
0,486935557419482
0,491264270927507
0,497807021267596
0,500625046699973
0,506573976551282
0,511453960927126
0,512719821642277
0,512201660362787
0,523039817074976
0,518186599255887
0,515456813189521
0,516061314491598
0,518072349945551
0,521138562864453
0,523651184734209
0,520456401979768
0,521903589293809
0,52398622799236
0,527796887133252
0,526687911138707
0,534215782745522
0,535599551327238
0,536839026834358
0,540928323847194
0,550693707741549
0,550525093171079
0,563082745453524
0,564601639364383
0,569694107994177
0,572189568085071
0,580707921438443
0,591051474429657
0,595063970581595
0,610521440927423
0,616304130674458
0,620563524927005
0,639661165167568
0,643479537609443
0,649925204879259
0,656374993812056
0,666329305830453
0,669013198878486
0,67736193345201
0,681055586396523
0,68745162497749
0,683361528497802
0,687891963859356
0,684243784106272
0,685051268509759
0,679601232655155
0,681413011406329
0,677108222011569
0,670830551696123
0,669244770801931
0,671488288128124
0,679736623776123
0,682872704445386
0,691458778759956
0,70222192791665
0,712507899068498
0,724747622409139
0,731700490228126
0,751522464719961
0,765015210414839
0,770934050970833
0,794483677328022
0,806564241933446
0,816196418362388
0,832625028759721
0,843803308194387
0,861752480620392
0,867765562289398
0,8794083316785
0,887691015797766
0,913866571548543
0,928657635657658
0,952998048866359
0,954358895274721
0,973456119187822
0,984591204034967
1,00732673806618
1,0167049630072
1,03965222080988
1,06546299988282
1,07958182409898
1,08076598059265
1,10547998482248
1,11003424719415
1,131323615825
1,15919878186994
1,1451822530417
1,16659825401856
1,16070313816373
1,16156367198434
1,17127042575392
1,15794228604647
1,18799629912649
1,16218717374979
1,17359573916484
1,17843134930208
1,13912131579619
1,13763155506012
1,13543538747531
1,12391989301705
1,12122058847379
1,1069581846092
1,10377277286777
1,09816285357903
1,12409085169578
1,11397155533236
1,12829781545886
1,11781109986377
1,14395818548899
1,14083231524374
1,1718379301207
1,17523645750775
1,18893549045664
1,16915330313278
1,18968225965327
1,19402783354992
1,20587296513284
1,19881593392035
1,22128201793285
1,2184221144722
1,22834781482471
1,24039213151359
1,2044035756151
1,24682122710113
1,22162718971655
1,23856157658629
1,24647741537263
1,21892999044521
1,20289471061005
1,21707826338944
1,22395228181985
1,22179645889291
1,20223617950026
1,20867128747668
1,18977662389133
1,18802591802336
1,15597259640692
1,15359789596573
1,14374431721687
1,15442416635511
1,12257082959492
1,10813109565754
1,10870471870789
1,10380820070808
1,07536426736375
1,05749024911769
1,04292272014397
1,02013517714394
0,988248304060332
0,951956893286191
0,927020730128414
0,894903862777507
0,856861115208197
0,821366443667704
0,780351585653943
0,745434708885837
0,718890578889455
0,689463637506312
0,666091826026906
0,631050685616225
0,614770674555326
0,60273605928398
0,589482929826201
0,572301788650417
0,568166070805179
0,556745438924851
0,556171803336006
0,551790787362332
0,549027567648507
0,541394487136196
0,53889413211477
0,53772222449926
0,528496989854713
0,518929134931387
0,506245166639585
0,504024793621015
0,48814406989244
0,480456328450188
0,473072638612275
0,458116570124578
0,44810053851519
0,433906651374213
0,42445921305829
0,409947991206555
0,391808848067826
0,374894342727242
0,354157432749691
0,346088573570207
0,325500656118764
0,310855237944129
0,297902445069357
0,282143524917328
0,271096949001868
0,254130842634218
0,239382862710205
0,232568417991117
0,221290675130755
0,212285967979444
0,202337893741435
0,193188038916211
0,187134743873688
0,181568719929066
0,176300126177193
0,168942909061215
0,168380198284592
0,162598183049834
0,157871260980314
0,159704209648034
0,157598787926083
0,15697412573099
0,155479123351183
0,153548228130294
0,155232016877806
0,156248407276336
0,155562099275019
0,160270231711342
0,156294059205738
0,157316381062447
0,160024363258102
0,160155269657108
0,160868848673382
0,161672691538468
0,163321065884423
0,16502269400366
0,163291661677075
0,16330003276866
0,162800497327875
0,160402939063165
0,159691148082241
0,157785640599115
0,156301889772237
0,159863406752944
0,155102010701836
0,151958004426209
0,153389250426657
0,153720980459383
0,150287918430633
0,150039004779746
0,152582796649914
0,153183269053765
0,153662678535817
0,158144727780579
0,159884393199841
0,16188084096742
0,161729503827246
0,16423940773578
0,166630609074414
0,169292046127911
0,16898152124154
0,169472417781634
0,170779076672564
0,172155036446757
0,174394462058922
0,177324407460108
0,17463950605427
0,175953655726319
0,174711164735998
0,178678371484179
0,178143315717254
0,180104100548683
0,183784532894542
0,183315724051861
0,185560447541558
0,185688346660691
0,187651645034815
0,190134653626185
0,191740502570524
0,198056784768717
0,203221561967525
0,205280125301818
0,206588621593903
0,211983899560947
0,224571107084902
0,232454232409591
0,239842515321752
0,244044363089126
0,250814089423622
0,250939316434014
0,2571152145746
0,261537329048868
0,255440078821099
0,256579342083498
0,255884929498591
0,248153352571246
0,24067404595054
0,233578790557715
0,237712325905214
0,230523791229211
0,227323538790978
0,225359892357971
0,219513361779952
0,216166418508367
0,21336569497908
0,220524857700262
0,222117897147475
0,220167782609548
0,222343805569358
0,220729860160063
0,224478091516892
0,221592693092551
0,217335612480073
0,220008620023216
0,212968460607144
0,20696584208772
0,204393938077159
0,201392919846317
0,198695791805838
0,200766888895877
0,198665428310144
0,195323435584183
0,194485729233363
0,195487070796794
0,185967121117983
0,189021004743385
0,183479269502971
0,190187177885517
0,188372747617334
0,183402179264182
0,181744140727501
0,186923277485123
0,182293776189155
0,175745502964818
0,182502791682338
0,173936838990532
0,178214680523659
0,176187375562466
0,171180838792862
0,172043952315066
0,169666832105551
0,170081343840905
0,165685602412359
0,165875418785674
0,169778617392668
0,174449538757558
0,168509867106276
0,161985011467933
0,161547484056198
0,158050352432953
0,156248631475691
0,161497149486455
0,169027634957306
0,165447453906594
0,158235575805661
0,153919491460178
0,156838028834392
0,158204346336911
0,156189314597749
0,157211582615681
0,151140571721648
0,162506254000685
0,154885713430282
0,156740365870553
0,160110814973067
0,165231814618992
0,157553080573148
0,160280779694388
0,161294698455865
0,162161286827128
0,167475751263883
0,169635306395628
0,16441760853558
0,158771908274405
0,17152563659533
0,171877314303298
0,164128790138564
0,177859384736247
0,175039389615263
0,163876305734089
0,165519131063111
0,178308473295884
0,170736471762627
0,180370173550322
0,189574005513725
0,18774028322918
0,184129426889293
0,195312073124129
0,1989894132502
0,20170569926528
0,201831748842959
0,211838065315911
0,21155701780174
0,222993830970066
0,222460838433951
0,230052281160989
0,22742664371964
0,244757502931693
0,259991729289787
0,271233383365407
0,278665121864841
0,279557269184199
0,292980791346023
0,309222803984508
0,29752621228226
0,302955055264295
0,318006130092303
0,320555064209927
0,31490034695099
0,347037761765459
0,32031896733202
0,313558358589809
0,310094626519971
0,306569337809553
0,303223543052604
0,325116308430104
0,310623448462948
0,309347783302908
0,305688806711637
0,296270932447862
0,286485558745083
0,297524764062211
0,284371667044617
0,291377209300751
0,296839765083018
0,280574175053949
0,282961679887866
0,278356373101586
0,280577793592279
0,29479499294747
0,273922375703373
0,270920858165014
0,270983543697042
0,276265156908192
0,276383933226621
0,277513560365995
0,26029501828603
0,259456196896092
0,264470376856905
0,278681481645527
0,264721328711072
0,253279550340618
0,267630678715744
0,266748836147656
0,245744119500205
0,237382473050166
0,253281039287464
0,266057967740633
0,231371704387035
0,267573129192756
0,272212529337537
0,262233786820069
0,266530704033647
0,27969142010161
0,26740358590843
0,268479645607045
0,263290730855223
0,26515481762658
0,273185137803394
0,281662997823906
0,25816311884294
0,258709046278949
0,277759301197954
0,271455648711324
0,289459299568118
0,25923164005529
0,265068549475558
0,292028166875672
0,261683906633582
0,289899007728324
0,28971788038011
0,302039190639656
0,291535377549516
0,313551487693913
0,297767336614179
0,309974260174985
0,295393979369632
0,292840695036645
0,28368431826996
0,312086789289656
0,338866644748572
0,327712708761063
0,324501927446145
0,347408289579305
0,337350800096699
0,379504313306174
0,378052631008299
0,344034247207688
0,356307066194236
0,350572683368467
0,399396367052905
0,419954909512437
0,396474908181837
0,382528050349307
0,371128642822763
0,394622360078035
0,410147250889482
0,4102660666795
0,421463282479404
0,37530559830424
0,320857409804101
0,329433882844385
0,355430706101345
0,345469143195575
0,318152759016836
0,386999103145437
0,395609182486933
0,370207940208072
0,343127838151477
0,364060589064197
0,327493769906005
0,307072598681977
0,320905119975836
0,36627224966156
0,386833345202293
0,26651389032455
0,303038093555969
0,422983791364458
0,291013341188095
0,314395997667359
0,404545736133341
0,294556993872918
0,307716256395797
0,359163807461398
0,380477410094362
0,405779566097484
0,290317364486908
0,389355302268768
0,453792611200263
0,37151058268934
0,346317483458931
0,345783959361224
0,307968217359535
0,293202158217247
0,428028082470466
0,412646977656468
0,352003532749888
0,443681446869111
0,369597928582153
0,374988036101905
0,360268790544199
0,268543079064204
0,399423952274206
0,426991395993326
0,313816350215431
0,440239862283673
0,379728256449558
0,394334292667887
0,611976115458546
0,698017561439417
0,439196954398865
0,466726792631666
0,285131428133532
