3596
4000,36533379555
650,420452594757
1
2
2
0,0394413017438062
0,0515843423774797
0,0379343720314178
0,0445271540038915
0,0504317499710035
0,0444830488399643
0,0442942223321091
0,0424013968889094
0,036103611092441
0,0395750472765167
0,0425722053117013
0,0455240509813445
0,040159282729027
0,0533371545341442
0,0460538241287285
0,0516775356013951
0,0434305930736815
0,0451478570303218
0,0459260905225546
0,0433821845187795
0,0310155937362492
0,0396708400696233
0,0384901865774547
0,052429701863126
0,0526705381017417
0,0481815664516564
0,043065074844271
0,0389399955536628
0,0375520205482043
0,0473108758755039
0,0461058277248906
0,049931073590833
0,0443649504762436
0,0409088073297411
0,0411870251972273
0,048819274149143
0,0493365087911782
0,0538487718770525
0,0425563927025088
0,0470835929238772
0,0371713768563125
0,0430489286452943
0,0429041248329923
0,0410240491036204
0,0390072660884818
0,0478880731220466
0,0371750943498469
0,0397112290784845
0,036316814231762
0,0416279267161081
0,0442432350019294
0,0532476723396655
0,0418004110910666
0,0395856698178407
0,0390789887616639
0,0422591418305416
0,0401100108235367
0,0406071878643642
0,0420177598702788
0,047572472373845
0,0498508067103162
0,0485281119749073
0,0372356652361553
0,0329030408995827
0,0407582705033029
0,0466561021751163
0,045242281811605
0,0505983475686409
0,0377178272703601
0,0429309177303486
0,0354185257097191
0,0521211866191213
0,0396287354486149
0,0335271326311813
0,0378034198646797
0,0460383563128776
0,0314253633577755
0,0403481576261233
0,0401224532553359
0,0472819130543349
0,0348612702736912
0,0391291263805355
0,0331100675290314
0,0359656232416793
0,0440278371408546
0,0394182705096881
0,0338197175510956
0,0502291420853714
0,0363143742955033
0,0365266199483472
0,0325635094558036
0,0513569964748731
0,0436616651089236
0,0447031929885424
0,0343049400319048
0,0413079192586649
0,0372928539117681
0,0407409574086502
0,0342100611989341
0,0447617000220038
0,0266039612211164
0,0438622588071494
0,0193153259182727
0,0355475913644917
0,0540717590491953
0,0234965998925963
0,0407163507419524
0,0353901299367195
0,0307350221774329
0,0400985240775163
0,0379990194591866
0,0395198010787068
0,0397111905922072
0,0393621148922
0,0346811841056809
0,0554192837920156
0,0291820591648498
0,0364484018370129
0,0331259689766565
0,0371479559896828
0,0301816509034728
0,0658264595007325
0,021170293748828
0,0307540834646051
0,04500332058543
0,0332330438518655
0,0294045696313152
0,0412320567486212
0,024582673093879
0,0381233488035021
0,0307910363717523
0,0394746074726963
0,0254738698931666
0,0448618927827841
0,0337385490917859
0,034861211987559
0,037416375056774
0,0407634962203761
0,0447216443707205
0,0210636049112703
0,0263213093346436
0,0320118042583663
0,0324578406421188
0,0519063059186403
0,0351436928645391
0,0217384250744613
0,0325985408638886
0,0518133632525018
0,0249670230424951
0,0417432399314315
0,0346025846673826
0,0455657502282575
0,0466046515277814
0,0375313668279724
0,0389280241661645
0,07997435534713
0,00499877230049629
0,0278540735841174
0,0169155819052996
0,0296432137650207
0,0363940826508043
0,0327999468749945
0,0358083637894176
0,0356286500242865
0,033111382084111
0,0392645401139861
0,0463249689707971
0,0216457669599775
0,0197796946183034
0,0408400687938497
0,0170762179354957
0,0248394387655763
0,0427227637228992
0,0460217558201599
0,0166806168713044
0,0420426425579203
0,0251798610049565
0,0292119850132437
0,0317334808413575
0,0392636275344683
0,0136572714069581
0,0321643221033997
0,0351448064878458
0,0386022954958353
0,0383264973099312
0,0392020218758182
0,0188271832385331
0,0290956311672184
0,0312910274445057
0,0357153466990565
0,0362367562843093
0,0346371655132625
0,0272558818308434
0,034754026508347
0,0313867781259559
0,0442367560748586
0,0381986626091625
0,0166065659301458
0,0292487975596555
0,025768379181839
0,0364188008617256
0,0367622506558101
0,0349232668897939
0,0382954111352231
0,0306253420011935
0,0545818458400416
0,0305871532050588
0,0126950212870147
0,0289786577431178
0,0359671238718445
0,0376889524073088
0,0426098098569892
0,0343586479851311
0,0194776655470392
0,0275129842782149
0,0328167050505445
0,0353943547379361
0,0417141144244377
0,0307539861396658
0,0317158607137858
0,032422610019114
0,0337825179198692
0,0267289229962397
0,0340176471967656
0,0364045513487063
0,0426775452183375
0,0347056321019238
0,0371130892634636
0,0334845710007489
0,0463436478974391
0,0379428900366507
0,0336952664093065
0,0314702964578287
0,0337143298558531
0,0334666872264989
0,0427084413523989
0,0260428464122767
0,0264416222930728
0,0316383441056061
0,0402083076678612
0,0366136419618578
0,0349320614815102
0,0316994889134521
0,0372794065969033
0,0399897746728173
0,04296612160639
0,0403877624280346
0,032867594276576
0,0261933679047869
0,0318413061847672
0,0472867300854557
0,0241584664184138
0,036643601071904
0,0343256810433005
0,0319704675621146
0,0343409083596213
0,0455297074507621
0,0268168775045279
0,0264135410611829
0,0357066826508528
0,0460156170493603
0,0365992939380337
0,0427851864157656
0,0370988761072326
0,0488143676425603
0,0407000513692999
0,0217032264036406
0,0584682779836451
0,017466555099054
0,00966357448300449
0,0324514565482216
0,0435853121381172
0,0559142198942888
0,0453869916514212
0,00442259985297709
0,0264436727368429
0,0324862094827392
0,0358149475993294
0,032793681671039
0,0348744021280057
0,0399747040597088
0,0407294771375515
0,033579521167843
0,0465987364267381
0,0344185677062004
0,0299342400227029
0,0472919480495719
0,0265356739869079
0,0362331654685567
0,0346889494779303
0,0341644318125469
0,0393632191746509
0,0508110386686426
0,0343108378491501
0,0415067802333337
0,0318637965905483
0,0384181653082454
0,0406389370909735
0,0308358183333907
0,0383530448931076
0,0423871230817409
0,0412230720416881
0,0383182577964289
0,0437315913476551
0,0382820496055804
0,0403321704240952
0,036162154158605
0,049305383276367
0,0363696349014752
0,0337125707966187
0,0442088132057312
0,0427833741614125
0,030880178196695
0,0433950037244618
0,0423857783404713
0,0461110670822886
0,0391708599083431
0,0510061670428519
0,0479930208142464
0,0574012256728044
0,0373700584538311
0,0451914192605835
0,0391182812411056
0,0549781628642831
0,0431853140118609
0,0464299987423217
0,0501758295229989
0,0560717308530608
0,047582753695771
0,0499068552861507
0,050498068736033
0,0421595653761252
0,0471311810305248
0,0775798778354958
0,0303173981943857
0,0461843050531738
0,0536148382354317
0,0471574913564751
0,0503307278774199
0,0576612323780932
0,0562781388876011
0,0591659431234303
0,0580158651019322
0,0643290745585122
0,0478755862286796
0,0640586506634824
0,0742469814034765
0,089374634639752
0,0366415095759833
0,0411398592434863
0,0553202947304467
0,0671256875071973
0,0720486020087407
0,0662651350971569
0,0518306824201083
0,0634244742310427
0,0615679734624792
0,0661366578239636
0,0667155736275594
0,0736324470915295
0,0722655776982336
0,0763284916834111
0,0709164959543372
0,0762757220954176
0,0758318543399061
0,0766906432388521
0,0773486611109376
0,0933331934065269
0,079181701641008
0,0788087527065659
0,0770144783279184
0,0912449292458113
0,0897314986688461
0,103459759138938
0,0847370032193621
0,0945038268425946
0,0773483417222815
0,0938139023567948
0,0787988998459376
0,0843884414640471
0,0970142429120377
0,0889276894026205
0,104654365013736
0,101860415196208
0,10608679881152
0,105642228948514
0,107434846321692
0,11838774445112
0,111850839717733
0,113518484565477
0,10653858170627
0,127072021405541
0,120226357840144
0,113013556482844
0,122121542856575
0,126717759481859
0,147859225660966
0,126740019972847
0,113551848711288
0,116887237657797
0,12113119218148
0,120603968114773
0,133788042939862
0,137649492423893
0,137613392922639
0,146286255469903
0,155693496494414
0,145807741368544
0,136069881072392
0,147441719101113
0,137006085043279
0,153959388425974
0,147588827095017
0,154850371591605
0,168983080084087
0,156720112239853
0,158801558765416
0,171568723183869
0,174008579373648
0,168917802876315
0,167031328146577
0,18101815536512
0,166228805149337
0,175620069934959
0,18073538497953
0,18139861384596
0,181804829760094
0,186482094970316
0,179663516310424
0,181916597670812
0,195546461003972
0,20098402022489
0,203176875994898
0,201203240183597
0,204919571295357
0,201669345647523
0,197732123461103
0,2138382675901
0,21085969363725
0,207308469891256
0,234293425657163
0,221592558985611
0,212137417143654
0,231721066401195
0,206921886318898
0,226153191015824
0,221371086649638
0,234247073659126
0,231113129238983
0,241212572014538
0,237902084004604
0,250622571859848
0,238567752201604
0,247581811907648
0,246985020599401
0,266217793939884
0,24487201754173
0,266508669028849
0,250591761250493
0,272605436875628
0,264931656601991
0,282816250645476
0,269156035522569
0,268371145388327
0,265163883054021
0,259569713502335
0,264319732625922
0,294525075733786
0,280601273733821
0,292266612354823
0,292526376671172
0,333601966976618
0,288985929111479
0,319218396323754
0,300771569833621
0,308219237017833
0,308439594898408
0,316685134182422
0,313047551598457
0,34278810230693
0,319805646175516
0,343735130360303
0,315668811149121
0,332082341916582
0,32387910664606
0,354861279420947
0,324706675138855
0,35982407989973
0,346432948370642
0,363993886746193
0,33197825446125
0,360229805208392
0,345457632039592
0,355635536380181
0,366680492160695
0,369823887320216
0,342714441862049
0,401300068612978
0,366522537654537
0,382316393973189
0,374592180315529
0,377365305734012
0,388487157498755
0,411867245167371
0,383604034153003
0,418756619188394
0,39904201207283
0,416731669363725
0,377553118560685
0,411977065429301
0,413049238136451
0,421466633096144
0,406955191583017
0,426221071871521
0,389607044014559
0,427304156628452
0,430178007808973
0,437462057367068
0,424317220536139
0,441949935590805
0,453043761056854
0,432942394168663
0,441300887870156
0,448382682943243
0,423879371065745
0,461580060289065
0,431603651175756
0,444387929922451
0,429308932741551
0,471789852137893
0,463447069790267
0,493140241203749
0,454094928666073
0,470778632723681
0,464750567561668
0,498531394053011
0,4863048328842
0,492225374018813
0,467017875457916
0,497147891821039
0,47160547002484
0,497765660002856
0,479918808835033
0,517148891481524
0,496704781580321
0,549891988964343
0,478743751210035
0,543882644620169
0,498754527822603
0,526493926966811
0,504374664825947
0,524310079063004
0,481026223721648
0,543827889515005
0,524931337711795
0,544797057442821
0,549250011684636
0,539898277498195
0,51621698381361
0,559450741476654
0,551290768598893
0,555771068428954
0,562265851328092
0,586651364463328
0,559941685283881
0,556429534829487
0,536000804311609
0,585240832835339
0,576004708598891
0,589019040099527
0,580727079260856
0,588731639913222
0,571737313103206
0,574577014885064
0,576899989626239
0,625235143442953
0,563238803207555
0,641615160445466
0,620470258895179
0,594869245399627
0,558756129556234
0,611047971563699
0,613279715065674
0,629520514413293
0,604855046205151
0,657472886043057
0,60014942376831
0,665369844529406
0,606478422187525
0,659758429806248
0,612437886121379
0,639396460443498
0,660921507981764
0,677735934361188
0,614823589837934
0,660356468777587
0,660741374445072
0,659663727717705
0,622947653059218
0,654142603215444
0,638352283536362
0,667081951796666
0,642176268065801
0,669342251972534
0,658544264980743
0,688545915047378
0,652580409708941
0,702802681753699
0,685100725853494
0,724262647296492
0,672262245971025
0,710766411435594
0,634746266211152
0,725079161939087
0,680336828027227
0,706247254974817
0,691554393036143
0,706627034222014
0,687039291825649
0,730240115821606
0,710284330945104
0,758969151503397
0,694497726488016
0,732732093069531
0,704619028748766
0,745068767420572
0,697518845098104
0,730596280493214
0,679970489256131
0,744295200410699
0,714491630614262
0,71102596106417
0,708933734919055
0,75779550313221
0,74632473008948
0,774675263632924
0,722015431678564
0,724340789195797
0,735786490811922
0,737481576079825
0,735391792808326
0,756032186124377
0,727607711727461
0,761698786812116
0,769351499083072
0,77362439719112
0,737617591367523
0,772088882668056
0,745181540566271
0,789945544646268
0,759963924426941
0,75685162459526
0,786653898285161
0,800493441699248
0,772008474598644
0,785577420041341
0,750941094801536
0,757287903194462
0,763850166964929
0,820468962509918
0,776677290783991
0,777963980673942
0,770253893807083
0,798871978452526
0,754581121225053
0,799142801406464
0,769066996729588
0,840528997491287
0,758891311064026
0,833538507015006
0,770352964926493
0,832841615996194
0,789709489250162
0,81710466022718
0,795249392689837
0,807255870132565
0,795796796939244
0,82568061764059
0,784806569927568
0,818883820247307
0,782272317277906
0,857236455206703
0,8120685655427
0,838551753847696
0,79770416657794
0,888346049204697
0,780554827372638
0,803659932682412
0,8267251336759
0,86083517704701
0,788619794666433
0,847649704112665
0,803876606539856
0,858533798384895
0,793731682297039
0,792026967621188
0,782403817618907
0,856278827748255
0,79762325716451
0,845498725046395
0,814735721872609
0,858682615046039
0,833076365513693
0,877852813547464
0,848478284630037
0,865262265740779
0,83690730830991
0,85971098463415
0,823217583815782
0,828840886928519
0,836920218654523
0,868144837905482
0,836119208239643
0,870019769462519
0,8088188296582
0,843480738213346
0,837677290012832
0,854419537320086
0,823825767927209
0,89557491429666
0,810822933328796
0,868331363283144
0,829621117884679
0,835727419291613
0,834176847747388
0,861173426731026
0,855483860947581
0,901954176038468
0,900546889548197
0,877123446872769
0,845838859668403
0,880000223033369
0,863846330761864
0,905858033503076
0,830392350013737
0,895343640861998
0,87163134657403
0,879260882906683
0,835923775762572
0,887616311631998
0,887237672794643
0,878458720384991
0,830544542138893
0,877861608237583
0,886086384902172
0,895313572011226
0,882274977237616
0,855100735380656
0,853080629168994
0,882275632093542
0,888321856247889
0,876420804806866
0,886729938494024
0,908184023443209
0,86759204463496
0,914179591874329
0,880454841023406
0,925300396281044
0,877047891504629
0,901398542957253
0,870258809362979
0,906671381903597
0,857350491896173
0,901928179185882
0,854326059279749
0,925317125294549
0,855462773500295
0,898621718146641
0,877486127110862
0,888176900467439
0,845428691067479
0,885988280206271
0,858427208323937
0,916166610513973
0,893539004314507
0,900292861552349
0,873624633080227
0,876745553751282
0,854944356517583
0,86877003065207
0,893968320697019
0,920888263319638
0,858724034869549
0,883484651050962
0,843729433714891
0,891839696104409
0,8443979125505
0,867399091469752
0,847873090393057
0,866515267096266
0,841171710876051
0,854193049693369
0,876250301756305
0,851648632588135
0,836869008751301
0,872761206353299
0,848293260959363
0,846731377423939
0,84065273676427
0,845574073802552
0,824879727144254
0,860567303067518
0,795795560928678
0,813039790603911
0,817471918219754
0,855519546650841
0,816238370793739
0,836627183765049
0,82149489868341
0,83192585162791
0,823758827219586
0,81096747464664
0,836390392806189
0,833923558284814
0,775708516956024
0,846926308871576
0,80502563837878
0,801037319968096
0,813057860816694
0,819248012266703
0,781979342883419
0,826295371273143
0,817661774117412
0,82153408559505
0,805577817119822
0,806111714604216
0,816355232984874
0,771583450565015
0,763968561031173
0,768628288206071
0,767210780529032
0,799425885353607
0,757833511774285
0,756808276381858
0,740577500990203
0,778363121731692
0,76186670119022
0,781735074369703
0,759942627312959
0,778226775777446
0,753665117058174
0,762495319001334
0,768914479721691
0,755392633436073
0,735939265140263
0,739921862706706
0,756292538701282
0,764133733607996
0,736692476272686
0,743380793812844
0,745883213110795
0,756501316754699
0,726428265764273
0,753159552487223
0,727381397461164
0,725125187262278
0,717368202463172
0,737920809806941
0,71049012910488
0,709343365485511
0,719794734588308
0,736421100198083
0,71389779902282
0,71385616949846
0,712433489706275
0,72016684836119
0,689286392096701
0,716948389875044
0,689746829841938
0,680873435502921
0,705516649392331
0,705388004865204
0,682683603456249
0,686139286158165
0,6849088391657
0,692602756372067
0,676119253185842
0,680681277903632
0,664076268228752
0,686430151763051
0,673081801044632
0,666462106442491
0,646047306331708
0,665262992474856
0,655290204993736
0,658643620240918
0,65327447008626
0,665361357981052
0,66433561589675
0,654292257960302
0,635161546509994
0,659390722073023
0,649069000205099
0,639993163789689
0,634301766042123
0,633436021419423
0,632681062882059
0,620610068894422
0,621093353587439
0,632916009236194
0,624544577723947
0,617003182341602
0,624438493911315
0,607786754827019
0,578334431570636
0,609928774212045
0,593876748951837
0,597633669241084
0,5950701123802
0,595767410344879
0,578482600354528
0,589355798898568
0,589424782386644
0,589582300075198
0,582640220395943
0,591255746620867
0,58205341388019
0,577244232336052
0,589950108458186
0,576229466886967
0,565014564925437
0,563867195760289
0,563177662743788
0,562820176999769
0,559337581685794
0,564703571639684
0,542158681134036
0,544993007960233
0,555578555115757
0,554059350737805
0,545448430997846
0,546464698542618
0,539121898835034
0,546060899854219
0,545058510641647
0,540338822179761
0,535076950996418
0,536504534881466
0,537515263650374
0,52634474032782
0,524285765017634
0,536054662571656
0,522550552438622
0,52965785947983
0,514610996198976
0,516780387160012
0,511205280886432
0,513849665625365
0,509960803166272
0,518077138797807
0,515411190947394
0,514540690341064
0,504581493120834
0,510391014608134
0,507528069170968
0,504610819659283
0,507457608792524
0,504510180958007
0,489010235902675
0,494972264653012
0,487471287220148
0,493049806987978
0,481501580277852
0,487347103780889
0,490022847738994
0,485859930648136
0,480968638878724
0,481110393963566
0,489809557957197
0,49465726498183
0,48189677154076
0,467843363188151
0,480485746479723
0,479720789360192
0,486906187791222
0,484107797270641
0,475598176430332
0,475338757328611
0,468048442781389
0,467817978686967
0,472174617674473
0,473403048925863
0,465995536486831
0,473867502903983
0,467044083282881
0,456515505109528
0,463460151887518
0,464675507685136
0,4515601865032
0,458620062150813
0,463417718094003
0,462352219606228
0,446730773450031
0,45399410535502
0,450588436264912
0,457552653502765
0,455222268977379
0,447581855058178
0,44796810825807
0,454300154531943
0,457739236828144
0,442416196641223
0,439267021289218
0,436119398931892
0,431704276500381
0,444133362828867
0,437977505635505
0,43332900395389
0,445505110350996
0,428559626369433
0,423937090626264
0,430098698575194
0,420107092392897
0,430080204803199
0,432601389782672
0,426246225311504
0,417545871440842
0,412749802077349
0,416315584045539
0,416160189159881
0,409001403168146
0,417144437679315
0,410345573477473
0,405860537268902
0,408707773227788
0,409030118395455
0,406845068439981
0,399046632927541
0,397881619700556
0,404077369630182
0,399166158753139
0,397402000879633
0,395659637652184
0,397358465106852
0,39393587749464
0,395896229810422
0,391375168914045
0,378942368487328
0,380892473308382
0,382356323552707
0,381370530627689
0,385594246458666
0,385384088485389
0,376188248973689
0,37577364320298
0,382375236109886
0,375035794623061
0,371570075081105
0,373044595967245
0,374164066970896
0,372433015450723
0,369298299884115
0,360588083719051
0,365150514889056
0,371550661239424
0,366503068758135
0,363717551728496
0,364344085688893
0,370791491952637
0,371067423865985
0,368312067222603
0,369052381410625
0,356480505486911
0,360549849127599
0,362222973036323
0,367202987637371
0,367927790724778
0,359392086765605
0,358107099970607
0,357519668523422
0,35865767376383
0,356500552909337
0,36186275745009
0,354590163050401
0,353611414791752
0,360608308210353
0,357196996780389
0,350430859902999
0,35692035595152
0,35853410157928
0,358529015030392
0,356215087893773
0,353253351575594
0,35956698116017
0,356437558471456
0,360581574573791
0,363548827880918
0,359283871180906
0,363186862427523
0,374893372307749
0,371962387238018
0,36653513717672
0,372155234608639
0,375879893213117
0,377228753446087
0,385161641399214
0,391691983706806
0,392857413054738
0,402134999114315
0,406382715811654
0,407160199025621
0,411922498248645
0,423063045802145
0,424723125858091
0,428546498212709
0,433670029550762
0,450038690216646
0,458763418208201
0,450907874875224
0,456731518663455
0,479507863065797
0,491560395805991
0,491943695956434
0,496472748890874
0,510180133202214
0,516092075214037
0,520277776042277
0,530987523755562
0,539113420739446
0,54300324315669
0,541389525917659
0,547043638031573
0,540992898043267
0,536112816254435
0,53480985297574
0,529838883602356
0,532778443810894
0,535296503748385
0,54796806512786
0,54087502329543
0,54142852663662
0,552455559019105
0,562085862018948
0,564868836008219
0,568988006663079
0,570103795896524
0,581069158260123
0,605547417987223
0,622061289676773
0,635431453310618
0,654274651119251
0,662751234833425
0,688551731279988
0,695989607896663
0,704488318578017
0,731859800356553
0,767655957755569
0,788092092173372
0,804750958362236
0,818237634134462
0,831123791288871
0,853386554075679
0,874124569112084
0,874559428730839
0,887036140603306
0,902950612000168
0,907587734633441
0,904529912554855
0,897089353841845
0,872676331449483
0,875464308670603
0,873054086588613
0,872037561716042
0,857318000084395
0,837288529215188
0,817330840240105
0,778191593792777
0,760482346180971
0,765851658769105
0,731954224238677
0,708718084902504
0,697404334717959
0,67114806338463
0,666020255808257
0,671120138949745
0,651619267434889
0,630334355780246
0,617637523000749
0,618209489383266
0,616083332736106
0,613434723443303
0,596715713663388
0,596524645506018
0,590508432405919
0,583872854180699
0,57634958314919
0,571640926955441
0,568969042638074
0,562976663292304
0,549836566569587
0,548179847664149
0,546961915702041
0,544229111202578
0,54126972989868
0,534892854289519
0,515349720433212
0,516640840378866
0,51587674898904
0,511187323628396
0,510915739182026
0,506375160304701
0,503743948386324
0,511851884092427
0,503158521684912
0,501834236857034
0,505356673467311
0,518266687558405
0,518879395607888
0,522398874910396
0,526392027312981
0,525887981007456
0,514071969017078
0,520531728695677
0,523972050544947
0,521285233124355
0,514726618900973
0,522769614724223
0,520771249862806
0,52322050995633
0,53135811100333
0,540939479933936
0,551542908451658
0,567190272735633
0,57804262699508
0,59334995543539
0,612866805967012
0,634682895156338
0,642847412678887
0,674663382274052
0,686895626655241
0,689139029999741
0,704181485928719
0,694985756244607
0,683115635310616
0,672618013778985
0,651279906794439
0,629903266176819
0,597804850965599
0,56935581940438
0,546884225458327
0,524655639992366
0,490978299117665
0,477632678159765
0,469380138488165
0,454599739474721
0,436895266113698
0,429215674752342
0,407223784110173
0,404158769428328
0,395908522905035
0,389176675262456
0,389032832120612
0,381819120836336
0,376202370212229
0,377598817311153
0,364928803301859
0,358364529340353
0,352857272357219
0,360357791650709
0,349264523191162
0,351852623734309
0,3470227585048
0,34378966854648
0,339501831148327
0,343932536308584
0,338400207072297
0,339437415729966
0,33366541225406
0,333496962058669
0,331972366349682
0,327266377827175
0,322074773518264
0,32486730762334
0,32011039118849
0,323551135804053
0,319569261817894
0,320510073662631
0,312648866854411
0,311473624301
0,315329308560833
0,317288425214787
0,307774299031696
0,307236798863036
0,305397719474619
0,304380806759154
0,30632602164537
0,30435337299107
0,301699581841031
0,305503397088855
0,299736805836593
0,297793282778074
0,296953002027764
0,292776296838305
0,300922574627236
0,299873774389728
0,288618736821143
0,293209773762443
0,288898704109155
0,292828276012279
0,287048704477846
0,287118179449333
0,286336502906541
0,285195849891843
0,282572258627372
0,288514327318389
0,285283612711897
0,278974852092964
0,280488766230135
0,283751094467435
0,27867766038177
0,284959502059844
0,282328891005457
0,277221099429876
0,273699222344144
0,277278333203914
0,271815849070354
0,27150135215494
0,27184048012434
0,271704861532444
0,268962720886848
0,2731095161435
0,267581703271452
0,271959207476331
0,26995300079442
0,267326381464109
0,266865386721004
0,26832998868699
0,262017027037531
0,263464202991116
0,26766841015738
0,267078361707204
0,263080216893879
0,261438340412491
0,262916987351224
0,262306783052622
0,258358399005334
0,262842214944678
0,258556914087475
0,257965342586769
0,255264096850477
0,261107771126025
0,255361947020193
0,259937892073331
0,260269463810496
0,260175754589687
0,257086702130865
0,252647352613365
0,25381829638799
0,255496154571318
0,246577493790847
0,249325277196706
0,252081707681674
0,250282363770647
0,251053398053142
0,247843494930344
0,25188650925283
0,248580812670154
0,244544142932686
0,247888734049735
0,248428373721985
0,251984013514757
0,252880427523404
0,252478308978099
0,24998915502716
0,253068678727595
0,252854626364254
0,249400644249439
0,24711126747763
0,247427276077048
0,239825328857217
0,245039185407688
0,241490910495603
0,242412966217192
0,244577814416777
0,242945822294354
0,239473773690645
0,242515275278514
0,236204382983098
0,239558029773463
0,239732296468306
0,239065312972338
0,237837147485621
0,242771525892417
0,239822758983138
0,2410183529221
0,23645535114812
0,239195140650186
0,231992249873943
0,233003481047145
0,234716023006113
0,238210704145988
0,235722768739033
0,232857206839585
0,234128325853806
0,2367010983956
0,234030790856561
0,2341553973183
0,231784450967208
0,230240091067463
0,231088009637271
0,231473731756348
0,227618161262931
0,231239049917062
0,233114969098117
0,229667752450956
0,228330119543939
0,229814239714633
0,225869678978342
0,230172664576847
0,226435582485982
0,230176821120126
0,225959675051776
0,225240666153085
0,227476391687797
0,232011688227417
0,22430510127677
0,224327470690436
0,223322747180594
0,224437899107233
0,222706175914108
0,219048306817638
0,224187407749885
0,224078121610539
0,219534958810928
0,221608495318738
0,215600143446532
0,220457110712064
0,222553893227925
0,22377691651008
0,219467997013067
0,219109178083127
0,215993819322993
0,219090126493683
0,214995568487463
0,215749262803838
0,212308785730528
0,212454026533826
0,21447113654696
0,211780190443637
0,212727624081449
0,214882151465785
0,213207817433239
0,210806426227961
0,209858059242876
0,210402156177848
0,206078009299312
0,210842183145534
0,208057811025667
0,205596659566674
0,206683002160586
0,208214715154652
0,208814947751593
0,206584302532638
0,203505525697846
0,204694430431978
0,205851237588816
0,206189486203747
0,202317871845581
0,201595177570699
0,200064505982165
0,201555536737408
0,200893624268116
0,198329390055711
0,197271238653347
0,198863203538102
0,199178073139876
0,196840489057841
0,196922068594487
0,198842381725743
0,196952229257125
0,198654798883812
0,197331981952985
0,197690357399909
0,191304412073342
0,191619684958962
0,198118359622213
0,197659859251182
0,192538544549405
0,19285144687851
0,19210743385813
0,192673007818207
0,189798830459362
0,190005542386882
0,18775231926764
0,193584643753714
0,188346513629086
0,189379563462193
0,186064628478542
0,189079449098345
0,188329217199085
0,187565647223858
0,184823172949132
0,188978173367818
0,185780433314651
0,185992760187592
0,184671395364564
0,183948719688359
0,182322087035667
0,18084744398911
0,180321333910314
0,184285274718759
0,180690121563191
0,181947569741223
0,179072129008377
0,179901738621743
0,179473920727859
0,184108794018338
0,178279714759358
0,182856378765399
0,180140370664933
0,175682433042575
0,175994647762186
0,17654570130128
0,174021416465062
0,172423487638274
0,173653199167389
0,174385115145943
0,174045056882823
0,176676326211013
0,174787010078839
0,176700280612763
0,174274783230949
0,174929704961141
0,172267884412287
0,170968295290206
0,171846230192746
0,172862973424389
0,170228909773665
0,172166539978089
0,171909237000917
0,172181865223873
0,170273137330009
0,171062749136497
0,168377218004658
0,16613735830226
0,171380367279022
0,168450385262589
0,168801553431431
0,171486497483475
0,168011382806867
0,16850588540592
0,16304675190369
0,165130130191874
0,166259005518409
0,167888253405899
0,169185743708486
0,165700275561941
0,165533646037246
0,166299428118041
0,162150745869621
0,169134390057069
0,163740910005488
0,16272153423514
0,162675623188358
0,162604518042393
0,16343092719978
0,16413710613179
0,166668712543146
0,16031130194889
0,160613541243138
0,163344509156991
0,163786784919496
0,161058022479685
0,16287080676618
0,160623054033081
0,156691624600529
0,161528330371568
0,162106021963519
0,159893057674413
0,158849763338029
0,160464164183549
0,16042800897393
0,154300088934994
0,156420829166986
0,1592440471642
0,158170927858253
0,15587501374597
0,156660289495732
0,159514736281127
0,159625969417404
0,15704910187944
0,155544463891724
0,155128057012583
0,15538345788787
0,158655498194077
0,157253256544302
0,157772568685102
0,155695433480143
0,155577084145621
0,153494369412442
0,157145043007354
0,148381706984138
0,152876473494872
0,150038443636377
0,15076100022749
0,152287840817017
0,153634222247806
0,148034845731314
0,150167697732326
0,15356964928508
0,154207959448379
0,152040229041104
0,153423994218506
0,149407747966514
0,148932842711584
0,149281565977244
0,150700940713199
0,150212766855338
0,152273752068104
0,147969304009064
0,152671616956665
0,152322255138797
0,149974481580689
0,14608380384948
0,148950941633758
0,148983579091043
0,146333946221467
0,145216676531733
0,146187198390888
0,144386133469936
0,14261564959328
0,144714947088825
0,145306933594717
0,144353016923049
0,141264929009477
0,144604124683369
0,14694474498381
0,138820549947685
0,145137866408163
0,143236087259362
0,143769989365431
0,14182933395133
0,144835331002831
0,141528474552878
0,141000576629703
0,139781585725066
0,138525512202981
0,138061509462859
0,137736871525945
0,137536534261656
0,135572286051135
0,137169498603534
0,139644044191596
0,139734125544416
0,138920958275034
0,134831240769524
0,137034340341981
0,135528912199384
0,137591464522857
0,133722784166419
0,13324336100595
0,134124538274323
0,138144256668109
0,133542653757545
0,132353846465014
0,133836252549342
0,136633936481417
0,135762845703836
0,136024129725184
0,133452723645855
0,133012776796155
0,130232125822329
0,128205578150354
0,129503442658672
0,132417762834538
0,128174481732982
0,130729728897049
0,132631931356843
0,130923846326039
0,126957489994428
0,135732863097499
0,130820948219374
0,127558202915887
0,127289276947749
0,126909791611991
0,12643837791043
0,130127088596945
0,127033389309057
0,127815395006787
0,127309250368606
0,126197678986821
0,128157118408277
0,126727884690393
0,126724488070792
0,122912334621368
0,123389110244601
0,126229023244887
0,122259841195117
0,125632591777299
0,125494238268569
0,123832183237053
0,120230467338837
0,122657337988761
0,123859894712912
0,119853204409015
0,122592436047199
0,119568845943604
0,123425722505615
0,124976282418831
0,117505064751555
0,120180953668142
0,117829265615651
0,122585508450089
0,119597592411545
0,11968179643409
0,116747450760318
0,120347927593048
0,119925948259226
0,118058194448373
0,118420136963173
0,119245441042817
0,113832802896392
0,121205821572523
0,113666848478801
0,117061131752234
0,116909929047228
0,115757953471827
0,114207734299354
0,116858915155839
0,116785395435196
0,118695832123267
0,115307521386787
0,117106674515051
0,115675723708844
0,114266388165366
0,114455620134303
0,118322253228744
0,113335544393419
0,114985780766994
0,112091725828259
0,116134205120356
0,111228661694282
0,11657609666846
0,11458390974552
0,115484227760242
0,110863831616866
0,113442739309257
0,111657162614715
0,114035378433434
0,113554116876156
0,111698680761072
0,112896378816046
0,110735471851383
0,112742171581261
0,108076692005691
0,108277813508089
0,1131042910886
0,111245273312012
0,109471306759377
0,110461306905054
0,113856999622279
0,110349705538955
0,108799755946724
0,115358660945275
0,109776096260188
0,112547841422972
0,116391814800281
0,107447246949154
0,107574915363148
0,110600688706101
0,108927327605349
0,112335538496176
0,11071124045701
0,107241655786282
0,102834320808962
0,106815319715555
0,107742615935783
0,112841233404956
0,11445865701473
0,109843062436341
0,107349179670431
0,109143070104599
0,108577728714186
0,109340477162941
0,106434837054249
0,111407345435465
0,111166143106971
0,109698994716545
0,109897988948979
0,108076500497057
0,110463478766352
0,108518678945774
0,109862451486893
0,115543986143584
0,109446964578512
0,108868717812544
0,110428658807776
0,111840985946181
0,115013959014781
0,112344246975367
0,108909001518403
0,106315198731235
0,108856041037239
0,10764282584919
0,107605606586607
0,112193020263425
0,106517583511078
0,105384760343905
0,109216477831211
0,104423964319199
0,110929198065642
0,102688695567477
0,108335033485987
0,103003604116596
0,104373789083057
0,100502285558016
0,112543270321103
0,101378459372077
0,111297798919934
0,103739933659893
0,108977508342971
0,103904227797866
0,105655177143875
0,105086499683028
0,107649944658669
0,102892693889914
0,103660939927993
0,101103234840396
0,105657265638798
0,104377684629733
0,101618908465037
0,102326222063777
0,105444813237633
0,102879105866997
0,104390929026514
0,102824432053851
0,103323986868767
0,10314269355574
0,103176759879929
0,102930699512762
0,106191249550986
0,10155662825211
0,101696381378535
0,105631903749009
0,100461422604499
0,100896919075189
0,105887527906499
0,103002988319583
0,104029706559871
0,104110128083369
0,10352365378749
0,101466402580644
0,102664615650917
0,101858952542394
0,101198638619534
0,103604030720728
0,105590788425823
0,103656156408713
0,104078315738808
0,100927305498996
0,103867690310576
0,1017956403873
0,102550607470191
0,102028652797892
0,100388328044716
0,101924901589805
0,0995313079574519
0,102546586912178
0,103403495543419
0,0997115844781922
0,103614654173728
0,102171168730974
0,0991277298259048
0,10089514270576
0,0998589678320012
0,100932865497932
0,103949441684386
0,0996633817443835
0,103428286122614
0,100890814266622
0,100246137891737
0,0999409396730679
0,100729616249798
0,103322464739558
0,101065289465537
0,0981850484741775
0,10256897706764
0,0998947227909019
0,102013813142314
0,100194574198904
0,100437684235381
0,0976006228729917
0,100983018765236
0,102377109985823
0,102031409676824
0,102967625653679
0,103981174197145
0,0998047213801848
0,100430738739529
0,100928735641676
0,100150098902959
0,100123511637832
0,102517323597554
0,0993877398892354
0,102828264054686
0,101181643394508
0,100693729891464
0,102069614996899
0,0984480026849651
0,0995793576708096
0,103542875011061
0,102887334878588
0,101362854271125
0,0982720831723652
0,101280456633535
0,101887995112968
0,099899948007347
0,0991714378885257
0,100276826134159
0,101019432591642
0,102243889106652
0,101797516286938
0,0992599161598287
0,104628148269949
0,101925388665696
0,102280463401824
0,102605932542898
0,100081898117008
0,102962187094075
0,100804463055606
0,100794341516426
0,100781328591509
0,102293792460627
0,102147153161606
0,102522939662421
0,100167385919031
0,101479314033017
0,100353131841587
0,101880093641013
0,103249700929357
0,101257277276596
0,101138742780737
0,101829068502578
0,0997949811601471
0,104133202657822
0,102224044322048
0,100755237606124
0,101922647721283
0,103116619629455
0,102030689325695
0,102287521218718
0,103559514612761
0,102226065403057
0,101304728618898
0,103139950177401
0,102713490526141
0,103522327319814
0,101217943242981
0,104058254926003
0,102852447278528
0,103095467420701
0,102328406828042
0,101754452631869
0,10237228553975
0,102512021859153
0,101558419535346
0,105256207962316
0,104326127093652
0,103644719786633
0,102946235251363
0,104165102702281
0,103770947914138
0,104322928485809
0,10677322900331
0,104864336907712
0,103534533215203
0,104369788356227
0,102591474635871
0,106625729774562
0,103663043576769
0,103555821079117
0,103738012836546
0,104954107518318
0,105528847043873
0,104880731883036
0,103741728277969
0,101945810127447
0,103666398287792
0,102229410972191
0,10508552049828
0,105525957795444
0,105366062684961
0,101977165374282
0,105247776685582
0,106055634126076
0,104556083492375
0,103497735985274
0,104157185253745
0,105228767441388
0,105192688086451
0,10190253251464
0,103185561780894
0,10375547298508
0,105143516171786
0,105335282312543
0,103261320576145
0,100698945993239
0,103678621740931
0,104686040817764
0,103171218055352
0,103478951804569
0,105692091351589
0,105051166447366
0,104268820573072
0,0989197428943651
0,10140893729974
0,103022902429409
0,101316719897764
0,101878530721351
0,102746813661799
0,102563111445536
0,101123998665946
0,101613179205865
0,100390860890782
0,102535481491944
0,101894100865551
0,100831756599519
0,099965934568556
0,101737844939282
0,101990921165456
0,10149461511436
0,101063291309725
0,100550844759498
0,0997495617450373
0,0999613200452786
0,101037051914272
0,102326148021195
0,100220266579446
0,100983995667106
0,102824359892487
0,102322632238137
0,0983206927213834
0,101460722327717
0,102394005029776
0,1007517267047
0,100104516201432
0,0999867317615439
0,0986591551622703
0,0995211480788943
0,10272677932749
0,101100347513449
0,0977443755333887
0,0993291850187148
0,101408323217374
0,101964829542974
0,0988655323693722
0,10028696439375
0,0994961984048483
0,100065518424106
0,0977993018393572
0,0978447981636406
0,0983713848060346
0,100308025829857
0,100584828528513
0,0994134631967532
0,0987211266343622
0,100816400157789
0,0989504064379988
0,0991689760466013
0,0983401720387938
0,0992916565397683
0,0997190598234445
0,0985531849842148
0,0957032237202608
0,0969490032876666
0,0960856926636993
0,0972008667814278
0,0972391681312795
0,0957549594324302
0,0979447583227846
0,0999645548843428
0,0968671065039419
0,0979627848506533
0,0956230470813385
0,0987151611437669
0,0991619317557092
0,098070498420825
0,0961785447752405
0,0980155928401967
0,0967420435928295
0,096907390125177
0,0985574217634054
0,0962564232233327
0,0957391435530674
0,0976525351320396
0,0951639160929951
0,0968979659975682
0,0965065346147606
0,0968575699511049
0,0972850809622147
0,0953173528388791
0,0982146972678505
0,0942476801038033
0,0955333235647802
0,095369985096697
0,0948216889446201
0,0951661048615182
0,0946171598521111
0,094575195357776
0,0960193750466185
0,0973874945046582
0,0948424712239206
0,0952074218942601
0,0935752664257699
0,0956539754729128
0,0963879374168316
0,0941222140048101
0,0967034144174873
0,0924044929514164
0,0923956490681982
0,0938906630991892
0,0921657377410943
0,095315884314321
0,0924566070472106
0,091920538254085
0,0951263716506682
0,094569772906173
0,0912837491125337
0,0915975481353565
0,0911069299043115
0,0906328747546502
0,0910830302270669
0,0885004018711608
0,0906734842938529
0,0911677511747843
0,0888621576669102
0,0901215899618049
0,0907019707118468
0,0899874478345869
0,0892103995973525
0,0895177256888166
0,088443681697425
0,0907829059225149
0,0886572694109185
0,0869234126277286
0,087863156083326
0,0855103094428052
0,0867044866513555
0,085266608260542
0,0856519484832352
0,0854012490467229
0,0861313495098701
0,0876107589717035
0,0859117173924901
0,0872388762019757
0,087762145785378
0,0862333873899171
0,0847873234757894
0,0854434083085286
0,0850730109341948
0,0839420694214108
0,0847965204911743
0,0841420184573955
0,0857631420128133
0,0870640800073167
0,0832911025374163
0,082682143717596
0,0829498215180709
0,0827883573236774
0,0854384752953678
0,083052563342013
0,0844473277204313
0,0813740193890171
0,083049580170756
0,08324446511679
0,079981160512952
0,0834022099083825
0,0833150630121592
0,0839889289197258
0,0818918927098449
0,0803061147561281
0,0825392227049568
0,0861486398677017
0,0830918635294533
0,0806578985901902
0,0819277062110641
0,0811535926628681
0,0800847911891068
0,0804049016980074
0,0793187170333124
0,0816131205712422
0,0816800207644074
0,08065180741502
0,0781602966309319
0,0784173974463915
0,0824535208855765
0,0820410693126997
0,081500009435584
0,0799323991673511
0,0784885447491333
0,077506728023914
0,079130782488415
0,0816295452630648
0,0772053808367021
0,0792672238851343
0,0792901255162447
0,0792764647778959
0,0808460312736043
0,079132364857157
0,0769342617662857
0,0797427032916277
0,0782505130426774
0,0788646448865326
0,0790789691302631
0,0786680600691938
0,0778946642767366
0,0780135871081934
0,0796045904499903
0,0756161949274589
0,0776650280130638
0,0771838310330103
0,0767434982868252
0,0758196728967944
0,0777787965757582
0,0762338415507675
0,0773281924270936
0,076913952777073
0,0766892385833473
0,0771010391130141
0,0773305559212994
0,0751231530720777
0,0750801264132366
0,0755776707279999
0,0775143900899862
0,0782128768120515
0,0747925357265901
0,0746483567565
0,0750678718786065
0,0774333830642811
0,077408366383726
0,0726048080481942
0,0735213766392433
0,0746539716829846
0,0792703491320927
0,0763055098813262
0,0727722960416646
0,0763747122251192
0,0738027147399961
0,0735932489112904
0,0746642963729164
0,0771014932212788
0,0751728930325776
0,0751107464294782
0,0725157988480332
0,0747054661191296
0,0722649044274773
0,0720568656454621
0,0723006196469361
0,0735913516352446
0,075513735631841
0,0754837763150083
0,0756766059746771
0,075405472561443
0,0742266877067359
0,0732032768793549
0,075846232427176
0,074065713426148
0,0737981716879684
0,0736896532230766
0,0735873135431484
0,0747268197243385
0,0741499456479108
0,0759634317711578
0,0751418912653869
0,0754102053953956
0,0704961613495107
0,0746766894600874
0,0745534909181363
0,0749641807802982
0,0745618533891023
0,0745016253005783
0,0722633457301533
0,0732410817875286
0,0742814710406867
0,0744639896014659
0,0750934521168926
0,0760946815021985
0,0748288555488419
0,0741376369003098
0,0750337451558095
0,0716706737298841
0,0730633528238947
0,0743970956858898
0,073470926232908
0,0753779621276067
0,0770776064120969
0,0753009996450879
0,0749137576464021
0,0744179435575741
0,070560009011828
0,0735818861448485
0,0735292145217378
0,0742079656903494
0,0731189575592396
0,073619186509593
0,0731078040317588
0,0752688772581995
0,0734401942305247
0,0750397948927855
0,0743530565710502
0,07402303839872
0,0737765792959856
0,0750613752485087
0,073430180378568
0,0755555733622061
0,0745713555272443
0,074886608833216
0,0737177998100108
0,075541472956124
0,0730071319653391
0,0757966630848258
0,0737168953847606
0,076662113554532
0,0780041515267909
0,0703207916892914
0,0768909380216624
0,0749927312414369
0,0759835539872365
0,0761935138973467
0,0763865734811725
0,0766292024035476
0,0746351498957289
0,075717720865623
0,0803542990515646
0,0773854599887375
0,0783742905881142
0,0764996019780589
0,0771217980245603
0,0820518390326718
0,0746931656040974
0,075214546787566
0,0773547431782816
0,0785473280034594
0,0816681427032291
0,0739476261698546
0,0777641702104553
0,0774117894227373
0,0793137196899913
0,0820765202440288
0,0814991329802858
0,0812639526135567
0,0803101485317898
0,0811490838390306
0,0824800407018705
0,0832394811523465
0,081633037537514
0,0845886974923206
0,0828654674092089
0,0845243021320019
0,0849976088494785
0,0827488086228306
0,0860061934985999
0,0847817816465778
0,0851810062957479
0,0872233206839848
0,0856195161320004
0,085847474209757
0,0877213399170099
0,089171616933377
0,0849509176141555
0,089587444498091
0,0889502628242888
0,085142292271132
0,0897988283939636
0,0901893709647346
0,0905709198472047
0,0902398699428737
0,0890252940232711
0,094754481002827
0,082816057518214
0,0930749622019542
0,0906719529601304
0,0933775353360367
0,0933750447417259
0,0966785965764189
0,0965703621188547
0,100601912891938
0,0993088777150853
0,0994508860191514
0,0997215169156146
0,100322307459928
0,101930223479157
0,0982198443375586
0,103491871036326
0,104763081802352
0,10562088193197
0,106948246362329
0,112236318566747
0,108211875806439
0,117789833747105
0,117131031811903
0,115428922562515
0,119595503701975
0,121428711992568
0,129193339310069
0,13070864260693
0,136783146798743
0,141508314332834
0,145883447480119
0,154677335119763
0,160781843892331
0,175540386748908
0,182199066298319
0,201430444813383
0,220537449118829
0,236713216583134
0,257721923533129
0,280174497977776
0,310417202909712
0,338016924091519
0,367176618676973
0,402711658371155
0,427911239213205
0,454996740588012
0,492961752257097
0,519588170829853
0,550285306760421
0,571013072446207
0,590481910212354
0,608761386774909
0,620402381956984
0,636075727037014
0,625332629237661
0,615193934445116
0,609289639508599
0,614472514194433
0,562062030155082
0,533481597374761
0,499793542302902
0,471076670389205
0,453473585577132
0,46282230845554
0,410433259658329
0,359523032215793
0,331590516407037
0,323649203222292
0,309898805160849
0,294952835500147
0,285454379287577
0,275872745281674
0,263485384587173
0,249806024005507
0,239043464631661
0,229855126044212
0,221949035818168
0,214989520462624
0,206932056930816
0,211151182301501
0,205219277474914
0,211108598359274
0,200473561015087
0,201100142352531
0,199309592050392
0,196201724027528
0,197023061547494
0,196470270117547
0,198347003893981
0,200407984642218
0,20349049744498
0,205470464596176
0,20656357349071
0,210986358526871
0,212025187359015
0,220553058252903
0,220345213847586
0,233481426657134
0,233168037799688
0,241459429524201
0,243804318185155
0,251216423329044
0,264645258945684
0,273374642317524
0,282814293032364
0,289425257891848
0,316595960712642
0,327891135171767
0,339200831319985
0,356422317002324
0,37054033581665
0,384534523092401
0,397294334386135
0,410568143108293
0,423473839793409
0,440164322279207
0,465792746612807
0,471864672485488
0,490853190410428
0,502933113272142
0,510203075805673
0,53549804525992
0,548493398774722
0,552150639319439
0,57535659240505
0,590955830172121
0,594513657127854
0,622153223345571
0,62515950056572
0,635993653169214
0,658191364450015
0,675464474211254
0,663504860188269
0,695368881491449
0,710179017822092
0,72900033375817
0,743076689007455
0,759981068003248
0,772340978771061
0,786409469549142
0,815539903194361
0,818999062531559
0,812035336326266
0,839333849827349
0,854193581375125
0,874102543303191
0,890127070922627
0,906799630380925
0,903379946941512
0,91488306771769
0,912889291042765
1,06481320429359
0,945851405833279
0,934488709598135
0,924683034893246
0,9416690745171
0,949714803933082
0,9352945099856
0,959778543818986
0,961258040064606
0,934864948841443
0,95515351684683
0,953858615543145
0,935311491791325
0,923639012467647
0,958854590035656
0,934469160521549
0,957752120105108
0,93189314966957
0,964061483892479
0,998050756993933
0,933501535079882
0,898752654358463
0,910270544251157
0,900892151626117
0,912949271669728
0,878944412927537
0,887657548447692
0,878601358787247
0,835001853268663
0,850309732364367
0,845328442140757
0,822226171606869
0,817087040779973
0,794573360271338
0,793285297501217
0,763514480842555
0,757975316150135
0,738131507709896
0,758874039461206
0,748614223923558
0,709419894097067
0,691331950080806
0,682202301911778
0,669361053769703
0,657935587703616
0,634676472545034
0,632671115368269
0,625549522614367
0,612697544419074
0,599087696675197
0,591853233405601
0,579478887015345
0,571328019558604
0,564379142950415
0,556822125637505
0,557769494563617
0,549050882576939
0,541193048232574
0,544323575039168
0,532872493981674
0,531588097444017
0,531946166027672
0,528370271518853
0,521817223300687
0,524036161894478
0,519979846718501
0,515063384341252
0,518165241780112
0,518848894623325
0,516829272073263
0,530932290943178
0,51732886748257
0,515849063321377
0,5166454040451
0,519442131911872
0,518609908001269
0,527869076286887
0,533605126927946
0,534467815675133
0,532809577901322
0,540043591872546
0,540185569847496
0,571630137382395
0,566105129149442
0,56016395589163
0,559525172269492
0,569667949807155
0,567556239335992
0,569854086795021
0,588818341712756
0,593458489322257
0,599570284284404
0,595883356077904
0,593481526810024
0,613258725389756
0,609130666271234
0,623327612742882
0,634440961903418
0,617113398765718
0,641387125487322
0,655418616538542
0,632731259906056
0,648875596774623
0,660224268219299
0,660895943230991
0,660675297610763
0,681059321588454
0,680508805352678
0,687682034281347
0,694239276493924
0,709706784659778
0,71442962599086
0,71836689542512
0,730438502760554
0,723662725427631
0,720253500052531
0,740279747386624
0,725237005261041
0,744946807401654
0,723514064222444
0,710996694928589
0,723784934805738
0,731028125043959
0,720057421341717
0,716487315420447
0,711504218920515
0,703036762545043
0,705286766205235
0,719717957649594
0,691497970414133
0,69831361380506
0,684246332731917
0,676140869507628
0,665836432791733
0,678600862470206
0,662377067628194
0,647384040812209
0,652822068836855
0,643539700528501
0,635649678799967
0,628130215633037
0,63546143413877
0,640252359216476
0,622446142439593
0,616148595758456
0,646192729217128
0,616341821091898
0,599917725743254
0,601898936035186
0,581442263369087
0,577161017554914
0,569312051848148
0,547228145589941
0,533000637458787
0,528344212045548
0,5086360853387
0,513903356761713
0,51021584653831
0,492016381286777
0,472016861928031
0,468375358228444
0,460359272402165
0,455304536789654
0,445706262302074
0,429134672400722
0,438417754568102
0,418285799799556
0,41657247494011
0,435062264009573
0,407258693374954
0,401663490396166
0,391541579769324
0,387150744603302
0,381533400795981
0,382165326639282
0,383607256979325
0,37247983640853
0,372660980826372
0,378944598785198
0,368488523990329
0,368512028222997
0,36986479509263
0,374605886775264
0,372931636593803
0,378835786604535
0,371763461068484
0,379253968694846
0,387282342525648
0,389302681239512
0,390345563371062
0,413244581219626
0,411024674560781
0,425823776898486
0,426356220402419
0,46518598222118
0,481743182243199
0,508082746520292
0,529340641178267
0,555187027269849
0,56378599780236
0,579188412903459
0,574408816181125
0,590047771652457
0,591371813162259
0,602767966506015
0,59456535821151
0,608175544306807
0,602750935779048
0,625283693200173
0,610003575199252
0,67271114763707
0,639611013841279
0,644567593292605
0,635642444985269
0,629547184764994
0,627225635586589
0,623000031392509
0,623460210004363
0,616622880188419
0,605989211828143
0,622837754354213
0,615550497856368
0,625999692601553
0,616932324812469
0,61858187680928
0,62079050474007
0,61893263661923
0,615369290044691
0,620989121861819
0,613164391949351
0,610217686263061
0,602762986267988
0,640480931315898
0,598299346444773
0,597719504561804
0,583419433348044
0,590647969948046
0,586564875562717
0,576501725123744
0,58073789565835
0,582442428214862
0,57187938590707
0,569318346316948
0,572192711521515
0,570981121110395
0,562614025700435
0,588679891415874
0,577279988596191
0,591162034836292
0,575651473713761
0,594053378963766
0,587417888907117
0,59585222980285
0,601587081732908
0,604446061946487
0,596491632453374
0,604313453470885
0,603841081072685
0,602076305037454
0,602540912274945
0,60239156109609
0,605648719902041
0,602129866368719
0,602700983434668
0,60684909711738
0,600858704845939
0,613977188545977
0,602491847367249
0,616328247990738
0,60714963136409
0,609178433498112
0,604751486799471
0,613485388679047
0,600699795119893
0,612693086557451
0,603081232090628
0,602132299804729
0,602034152931732
0,609598294761859
0,60213301846168
0,606878739695898
0,601803632588605
0,610770912204843
0,599187035244709
0,61073875548296
0,614532761713078
0,607586802517689
0,60991328242923
0,6115633541169
0,606869537919756
0,615133318170152
0,611357185785543
0,629371840891453
0,626692708744562
0,621384319827325
0,634091985251545
0,626553121737052
0,622812961911616
0,618813346576495
0,62247912310169
0,612503465796526
0,607776140876419
0,608080746561876
0,603294000289003
0,598084450557542
0,601802663449989
0,604167460649111
0,602837877721929
0,594748013277304
0,586955784638529
0,580358239633815
0,590332897499499
0,574337742539791
0,578300744428837
0,568941483247564
0,568083571359159
0,571304087331999
0,564629339172917
0,570833891207004
0,555496317510756
0,556961609366542
0,558125696791853
0,557521350345578
0,557406440552841
0,558521063766302
0,552598519972399
0,554929558410424
0,550404325863014
0,550160258414516
0,553164245736023
0,557983275837288
0,544686960029028
0,549045844567756
0,545803034293439
0,542926498195803
0,544524858913385
0,54530085762669
0,544426569377587
0,543496875512655
0,538357188917495
0,53689877716182
0,533781895341142
0,537067526052536
0,536914885852816
0,534574374843661
0,527790765466785
0,537111520444154
0,523835397110754
0,534215154541613
0,531828500425238
0,535111076653808
0,535904318704886
0,535347580888772
0,535437360666332
0,540756166150234
0,544981218878341
0,5420544836822
0,543754689381872
0,544189162647814
0,544649449300788
0,548075608269408
0,549976917793328
0,547755675953559
0,546734224241639
0,553305077803922
0,549862173996827
0,551280205148895
0,548885409048774
0,553298466155119
0,551987883544069
0,549827462679598
0,55027486068836
0,55374752917471
0,551869100528156
0,54737535887595
0,551043903902481
0,549840945271789
0,549938380228249
0,544065809527838
0,542957542594417
0,541538912333136
0,534823293771288
0,530831498343136
0,538822557111793
0,53457108922014
0,532471698727471
0,531103440182708
0,529585030576401
0,527041369413285
0,526559884269294
0,525547699490167
0,523074227556327
0,528503837546845
0,52432388046346
0,527269408893669
0,528514153792933
0,527625879342458
0,530684247917701
0,531669699971141
0,526044912110437
0,532001738870725
0,529908997071512
0,531995017649152
0,531454629039371
0,538992777790292
0,535250949776705
0,534804798977193
0,536871153222954
0,534781361553994
0,542119060328479
0,546064377864278
0,548037977683204
0,54908594798638
0,551064529663431
0,557033094978572
0,560567920941183
0,556509666421293
0,562473152169094
0,566148921070883
0,562392341071223
0,565299449965678
0,568996608461075
0,578098775655692
0,573224859188469
0,578488203006086
0,580949888762797
0,581616069378036
0,580711379530068
0,584710627760131
0,590422102957356
0,593301835467122
0,590605592252005
0,589705539250152
0,594984739483424
0,59688356634425
0,599666876062519
0,601969947216517
0,604018036404472
0,607242762031373
0,604655306241182
0,60475790771336
0,608046028519801
0,612533821642902
0,609784854326886
0,604822338057229
0,606640953277991
0,608694157513502
0,604398215677795
0,602617591485625
0,605280000754538
0,602708580549893
0,596944323126444
0,599239530116181
0,595012840325635
0,590395148082682
0,590618552203914
0,586713409706372
0,583485328439774
0,581837827352262
0,57346453126795
0,573995951347589
0,571414617764128
0,566149665632083
0,562241872308313
0,55876524886262
0,552571086081269
0,548857011512196
0,548813170697824
0,544478127970841
0,540493694631288
0,531702198063215
0,52952109919431
0,526175821694388
0,526191765183323
0,521815308778484
0,522587037537553
0,516088129988722
0,516288272201049
0,518077235529603
0,514543633262832
0,521091683873757
0,514224344098707
0,517482850397888
0,517237745665451
0,518262037639847
0,51884778656243
0,520727697419027
0,522120251652423
0,520246427481888
0,515967189503339
0,521189983283925
0,518962179332559
0,519661944666788
0,521601140976057
0,519472074995305
0,518825358821173
0,519463859232681
0,51883785271276
0,517228821749071
0,520134684977458
0,522698335235578
0,530603569270092
0,531747864617896
0,53831714138909
0,548896811412555
0,558261051755283
0,562760496199812
0,576754511771964
0,587546949133766
0,602735779165969
0,618745507623139
0,62913585236328
0,648067130548414
0,660592812502914
0,676430383480622
0,690367464813235
0,702954269290955
0,715976038465566
0,727225534611398
0,739458219123378
0,754028691242495
0,769000736536133
0,774245159961135
0,792112802213787
0,798396814232939
0,81370895313695
0,826769644582136
0,827486444340989
0,839263704574108
0,844392216053279
0,852196426886871
0,853961925668279
0,865764361239303
0,872823881533731
0,875254118063452
0,872476715732888
0,874733089488385
0,875530977649658
0,882855248779394
0,877897971019205
0,885437608594608
0,884019944584938
0,87544068212487
0,872223758812642
0,870388436273805
0,872204458224198
0,870342736367714
0,860881628422288
0,861429089690541
0,855751491288897
0,854703201046307
0,841783937676488
0,838144444797983
0,823827757780416
0,817919500907764
0,814792256705649
0,807235846813779
0,808850714630572
0,814609556206907
0,810533927019037
0,802822017686285
0,809877958984453
0,817959794816492
0,822374451452969
0,821330748877392
0,833022698259362
0,848939274740336
0,858280931839758
0,861277758909139
0,883179454246559
0,895013053832118
0,90517191924865
0,909699769967571
0,928181205239416
0,922756809320115
0,945549864500988
0,944309706904254
0,946972362735924
0,954349319365982
0,947074950155664
0,970041142190789
0,953203715343855
0,960524748750839
0,958989871998385
0,952267819042568
0,94928105916495
0,950296704883481
0,9627001289837
0,960437977874631
0,967444053909662
0,976388543783683
0,987680630215788
0,99373012242256
0,996112290840072
1,02080696427021
1,02096126768578
1,03686669486137
1,04616382829777
1,06266617555393
1,07957187525296
1,0795117995706
1,09048383378594
1,09479808260866
1,11972445200274
1,1154034348697
1,13233161570814
1,12438939506835
1,12005302078227
1,13887172528408
1,16403432287605
1,15991602059062
1,18372026798371
1,18377377423255
1,20562132870802
1,22228176197403
1,23090829482831
1,23260589408539
1,24365988829695
1,26506567876048
1,2598828044512
1,28582459454107
1,27539250044759
1,29142812142895
1,3213688824898
1,28285347948507
1,31640379738926
1,29156909134795
1,35957507477013
1,31286663149707
1,30671389192636
1,31121033221747
1,29428283412294
1,28156030144376
1,29400624563981
1,28136724690835
1,30212792039562
1,2829867724078
1,29140453315951
1,25434365221763
1,30591359694913
1,2594925295681
1,30002459788859
1,26253530138401
1,28307907641912
1,26534809430548
1,28891235941445
1,26880997323049
1,32646236486185
1,30084089887459
1,29503295360636
1,32097258561205
1,33381039383864
1,32159415458656
1,30244478208069
1,31052686770461
1,35114795097694
1,36143636138921
1,34138901764291
1,35486585423601
1,35892296505283
1,37127124290527
1,36575280195855
1,3451620942075
1,38001896576083
1,35889632431887
1,41853916901633
1,33700953588426
1,367585187725
1,37443066271704
1,3830410844401
1,36762786797065
1,39407366103887
1,36314706630767
1,32362325459859
1,34674067515886
1,37161021919907
1,3441350654841
1,35202318854408
1,3188930791558
1,32243949526263
1,32132519599539
1,32522746567642
1,31948702804559
1,32147947847858
1,26748336313455
1,27448184619829
1,23243347849536
1,24826747159454
1,19424809791193
1,17722410027116
1,16009410186131
1,13511942902721
1,09483650047809
1,07528280223262
1,04097466262071
1,04163627994055
1,01375563022878
1,00572273431099
0,980230726453585
0,977739153631465
0,964994563096014
0,970195277497062
0,95371982362492
0,945336558347089
0,94205666660196
0,955041601142904
0,937680618861163
0,944876860732763
0,922507320943687
0,911736318708162
0,913598052084079
0,900393260112547
0,88650639067598
0,883412808839355
0,883784035137909
0,864730126744242
0,851317515422387
0,831211926728659
0,828827176757039
0,807760240261475
0,796430620061312
0,777654445996076
0,756533071686636
0,744995561786188
0,725522174777831
0,710686325871203
0,689259503519804
0,669872345164935
0,654286467357515
0,636116837824353
0,621700276757753
0,618876434253213
0,60356008033794
0,588285288431099
0,582575571485976
0,576119241619384
0,55649630125105
0,554197436580093
0,540820621097245
0,53050699790162
0,518670650708682
0,51103375301508
0,511232679400096
0,502722565299365
0,497150231860545
0,498261717968113
0,489628323730212
0,490187152052244
0,488074640021236
0,477248821242384
0,475641836206057
0,479636911174267
0,476154860061146
0,474074614168942
0,469026963637122
0,473957648449438
0,471268474416471
0,470209906523054
0,466792097461152
0,47171500489813
0,475200970120511
0,463044729634005
0,463885366408843
0,455497090930654
0,452841447282862
0,453058239570561
0,449697237442972
0,45164779403307
0,444879449026509
0,446969825718909
0,437506943969816
0,441008785592775
0,438220923268379
0,434713102794048
0,435167790364556
0,440604562546012
0,444189004450421
0,443751700241701
0,43954280505183
0,446648747815248
0,442723224530893
0,44328407018027
0,444748195734023
0,452560624046173
0,450395559532515
0,451203292809316
0,453887053818889
0,459539018265066
0,447256436195874
0,467219059034321
0,461999807558702
0,464770956370095
0,461967329794801
0,464132465811065
0,466456759570074
0,466376248395429
0,463069779540873
0,467636526049078
0,468477482679884
0,470724177162736
0,472851644255665
0,477634666039321
0,475327561982669
0,482825770668108
0,485967994475163
0,492213316694766
0,492292035590525
0,50059470998539
0,50800229061405
0,52632754422403
0,530390468295204
0,5360241486238
0,543513233574505
0,550176363094914
0,54889374925924
0,558574317239031
0,571995320823176
0,563090226294636
0,555013126649181
0,561002155074128
0,538739355593957
0,548206841839997
0,545996143565555
0,543523021278775
0,531918454680238
0,522795546275149
0,522458055850735
0,537720963415083
0,521946489737021
0,533331749615718
0,537623780860492
0,532708767584246
0,529846729877041
0,537861495145028
0,533028783279312
0,545544364208747
0,534798134849134
0,537332684967551
0,520914291454837
0,53149077418299
0,518037402323502
0,527721418964565
0,509372090053988
0,510436489980143
0,520226369648731
0,520126476459044
0,51263981478149
0,510679569567343
0,501912550633079
0,519701029082168
0,502465318217699
0,50322931695937
0,517391099711053
0,519229941854363
0,519098010314592
0,52192645189685
0,514813077134088
0,519080022025032
0,495240410288598
0,502165868124824
0,504890241894238
0,514169377897961
0,511181637349197
0,509538086257869
0,508228633313726
0,511918449682669
0,50012216000413
0,516797164192031
0,504559605359508
0,522153047569968
0,51910103157785
0,521171933926498
0,514925559360127
0,507869124574219
0,508533775247978
0,516167232775618
0,522805992230238
0,507815449335905
0,49999998970685
0,513966179665772
0,510415134997374
0,512671030160638
0,504415807556906
0,510128056354531
0,500021186850728
0,507926011639957
0,509832628046315
0,502308564422745
0,503684248682689
0,520833286400026
0,520192679039231
0,521756773224682
0,513130135436457
0,517054555719302
0,522310581023271
0,524920002043984
0,509791108834057
0,534868515360575
0,536587308771615
0,52830723456372
0,524101967142195
0,532824468897065
0,509898071778459
0,521119073601113
0,541326273988438
0,541338526219392
0,542656304745543
0,549233336860551
0,537289351041139
0,55233566709787
0,570316572373976
0,555314207785501
0,561572356714894
0,568684588463607
0,556746414110164
0,578304834532746
0,582268155861423
0,607423326009502
0,589761850097944
0,607625555172822
0,621626452935802
0,642067612493571
0,636223165523144
0,673732688167956
0,676945755843447
0,695294601291743
0,676318492136099
0,690800338500366
0,684968561522998
0,688907249664592
0,712639953174966
0,727989272337755
0,711429027796624
0,737677483082581
0,754764568783603
0,745521669052112
0,733664967794127
0,724526631777451
0,709069431011643
0,719563480894998
0,690355193649904
0,737866776116929
0,715149689664631
0,713765236341137
0,707171731643322
0,750026673660415
0,730449603277644
0,747859076847402
0,745522605588352
0,733171225452606
0,688035049307386
0,715921433023632
0,69496532467513
0,746630334332364
0,701269726882481
0,746295797883848
0,705716774433114
0,754818676943799
0,73050512272257
0,730259494323412
0,700855228639329
0,732136257903635
0,747565878104352
0,780603381836341
0,746263119832501
0,749924728817357
0,725488102796303
0,76789439551928
0,787773616091584
0,754457303268211
0,700781800501382
0,77763123460805
0,734843643321301
0,730607174813069
0,723566567087524
0,786862882117536
0,780567557481705
0,784145176199563
0,727301122903569
0,784903421663721
0,789522699830109
0,752595935373662
0,759762468894664
0,833671472151286
0,794814623022337
0,768015499706884
0,815153993944709
0,825548185758172
0,802033897547146
0,81351378188438
0,791289083156905
0,842294520919039
0,769881633084662
0,822013054370151
0,823824654194277
0,795646118978681
0,770424291006658
0,909663086284273
0,789539555407896
0,88032290931852
0,872084815348843
0,833941466252714
0,840601809677075
0,966086794265854
0,882053426463196
1,00966773375314
0,893265881312551
0,876345516230277
0,854466805105519
0,944066925522121
0,959443205449341
1,02047206624105
0,993689772306131
0,983803849943066
0,987545523404551
0,947933779007726
0,903432208581958
0,952719231719312
1,09733359537237
1,18164095182293
0,996643677841555
0,966794793738994
0,876175627463084
0,990701009730329
0,850625598308234
0,966886087464291
0,928900241717506
0,965659941165506
1,04466215311036
1,07248311495752
0,916994801219073
0,99772472962773
0,95065008805659
1,17508546257527
1,03224237510564
1,13249441223558
1,03476575535512
1,1128590246514
1,01550253451796
0,942999984082474
0,983937641640833
1,06088917740595
1,05306388308758
1,26078209741642
0,909467506124017
0,930197954533617
0,95752263744707
1,19559630281336
1,0119231799019
1,04651862828036
1,01974118304626
0,801647938072479
0,982992320269996
1,86155008582061
0,88635022740107
0,736308829442405
0,954743506419972
0,971821271155963
0,71702120140764
1,25439392553204
0,672820653883897
1,08514358615393
1,12270067088749
0,849171169107122
0,818181077483657
0,775733548277894
1,50002983372632
1,21005982209095
0,926017169137439
1,43075983460864
0,803996163023908
1,30443236442885
1,16811401707108
4,19210194254327
1,04513395956748
0,925474499936483
1,11417847544677
